Apr. 7, 2019   11:44:27
A.C. Voltammetry
File: D:\process\data\acv1.bin.txt
Data Source:  Experiment
Instrument Model:  CHI900D
Header: 
Note: 

Init E (V) = 0.5
Final E (V) = -0.1
Incr E (V) = 0.004
Amplitude (V) = 0.025
Frequency (Hz) = 50
Sample Period (sec) = 0.5
Quiet Time (sec) = 2
Sensitivity (A/V) = 1e-5

Potential/V, Total(i/A), In-phase(i/A), Out-of-phase(i/A)

0.496, 4.055e-6, 1.453e-6, 3.785e-6
0.492, 4.039e-6, 1.443e-6, 3.773e-6
0.488, 4.030e-6, 1.431e-6, 3.768e-6
0.484, 4.017e-6, 1.435e-6, 3.752e-6
0.480, 4.009e-6, 1.422e-6, 3.749e-6
0.476, 3.990e-6, 1.412e-6, 3.732e-6
0.472, 3.992e-6, 1.410e-6, 3.735e-6
0.468, 3.981e-6, 1.397e-6, 3.727e-6
0.464, 3.978e-6, 1.398e-6, 3.724e-6
0.460, 3.971e-6, 1.389e-6, 3.720e-6
0.456, 3.962e-6, 1.380e-6, 3.715e-6
0.452, 3.951e-6, 1.380e-6, 3.702e-6
0.448, 3.958e-6, 1.384e-6, 3.708e-6
0.444, 3.954e-6, 1.374e-6, 3.708e-6
0.440, 3.951e-6, 1.373e-6, 3.705e-6
0.436, 3.953e-6, 1.370e-6, 3.708e-6
0.432, 3.950e-6, 1.368e-6, 3.705e-6
0.428, 3.950e-6, 1.366e-6, 3.707e-6
0.424, 3.955e-6, 1.363e-6, 3.712e-6
0.420, 3.958e-6, 1.369e-6, 3.714e-6
0.416, 3.961e-6, 1.365e-6, 3.718e-6
0.412, 3.963e-6, 1.362e-6, 3.721e-6
0.408, 3.967e-6, 1.368e-6, 3.723e-6
0.404, 3.967e-6, 1.366e-6, 3.725e-6
0.400, 3.973e-6, 1.368e-6, 3.730e-6
0.396, 3.979e-6, 1.366e-6, 3.737e-6
0.392, 3.990e-6, 1.372e-6, 3.746e-6
0.388, 4.001e-6, 1.381e-6, 3.756e-6
0.384, 4.007e-6, 1.384e-6, 3.760e-6
0.380, 4.023e-6, 1.389e-6, 3.775e-6
0.376, 4.031e-6, 1.398e-6, 3.780e-6
0.372, 4.042e-6, 1.413e-6, 3.787e-6
0.368, 4.062e-6, 1.421e-6, 3.805e-6
0.364, 4.079e-6, 1.435e-6, 3.818e-6
0.360, 4.096e-6, 1.453e-6, 3.830e-6
0.356, 4.115e-6, 1.469e-6, 3.844e-6
0.352, 4.146e-6, 1.496e-6, 3.866e-6
0.348, 4.177e-6, 1.527e-6, 3.887e-6
0.344, 4.205e-6, 1.550e-6, 3.909e-6
0.340, 4.232e-6, 1.580e-6, 3.926e-6
0.336, 4.290e-6, 1.633e-6, 3.967e-6
0.332, 4.336e-6, 1.677e-6, 3.998e-6
0.328, 4.390e-6, 1.728e-6, 4.035e-6
0.324, 4.461e-6, 1.793e-6, 4.085e-6
0.320, 4.539e-6, 1.870e-6, 4.136e-6
0.316, 4.636e-6, 1.949e-6, 4.206e-6
0.312, 4.729e-6, 2.046e-6, 4.263e-6
0.308, 4.862e-6, 2.171e-6, 4.350e-6
0.304, 4.993e-6, 2.290e-6, 4.437e-6
0.300, 5.158e-6, 2.445e-6, 4.542e-6
0.296, 5.340e-6, 2.605e-6, 4.662e-6
0.292, 5.553e-6, 2.806e-6, 4.792e-6
0.288, 5.783e-6, 3.019e-6, 4.933e-6
0.284, 6.064e-6, 3.266e-6, 5.109e-6
0.280, 6.378e-6, 3.542e-6, 5.304e-6
0.276, 6.733e-6, 3.866e-6, 5.513e-6
0.272, 7.114e-6, 4.211e-6, 5.734e-6
0.268, 7.513e-6, 4.561e-6, 5.970e-6
0.264, 7.983e-6, 4.986e-6, 6.234e-6
0.260, 8.478e-6, 5.425e-6, 6.516e-6
0.256, 9.011e-6, 5.903e-6, 6.808e-6
0.252, 9.522e-6, 6.362e-6, 7.085e-6
0.248, 1.009e-5, 6.865e-6, 7.397e-6
0.244, 1.066e-5, 7.366e-6, 7.703e-6
0.240, 1.124e-5, 7.898e-6, 8.003e-6
0.236, 1.180e-5, 8.391e-6, 8.292e-6
0.232, 1.226e-5, 8.807e-6, 8.530e-6
0.228, 1.274e-5, 9.240e-6, 8.766e-6
0.224, 1.313e-5, 9.599e-6, 8.954e-6
0.220, 1.344e-5, 9.871e-6, 9.121e-6
0.216, 1.367e-5, 1.008e-5, 9.229e-6
0.212, 1.378e-5, 1.019e-5, 9.281e-6
0.208, 1.380e-5, 1.022e-5, 9.272e-6
0.204, 1.372e-5, 1.015e-5, 9.227e-6
0.200, 1.353e-5, 9.991e-6, 9.120e-6
0.196, 1.328e-5, 9.781e-6, 8.985e-6
0.192, 1.292e-5, 9.466e-6, 8.800e-6
0.188, 1.250e-5, 9.097e-6, 8.573e-6
0.184, 1.202e-5, 8.674e-6, 8.315e-6
0.180, 1.150e-5, 8.221e-6, 8.035e-6
0.176, 1.099e-5, 7.776e-6, 7.767e-6
0.172, 1.044e-5, 7.298e-6, 7.462e-6
0.168, 9.874e-6, 6.806e-6, 7.154e-6
0.164, 9.334e-6, 6.336e-6, 6.855e-6
0.160, 8.846e-6, 5.914e-6, 6.579e-6
0.156, 8.361e-6, 5.490e-6, 6.306e-6
0.152, 7.889e-6, 5.084e-6, 6.032e-6
0.148, 7.456e-6, 4.709e-6, 5.781e-6
0.144, 7.062e-6, 4.364e-6, 5.551e-6
0.140, 6.721e-6, 4.070e-6, 5.349e-6
0.136, 6.391e-6, 3.783e-6, 5.151e-6
0.132, 6.087e-6, 3.516e-6, 4.968e-6
0.128, 5.815e-6, 3.282e-6, 4.800e-6
0.124, 5.575e-6, 3.063e-6, 4.658e-6
0.120, 5.375e-6, 2.892e-6, 4.531e-6
0.116, 5.173e-6, 2.715e-6, 4.403e-6
0.112, 4.999e-6, 2.556e-6, 4.297e-6
0.108, 4.835e-6, 2.406e-6, 4.194e-6
0.104, 4.709e-6, 2.293e-6, 4.113e-6
0.100, 4.588e-6, 2.181e-6, 4.037e-6
0.096, 4.474e-6, 2.074e-6, 3.964e-6
0.092, 4.373e-6, 1.983e-6, 3.897e-6
0.088, 4.283e-6, 1.899e-6, 3.838e-6
0.084, 4.215e-6, 1.830e-6, 3.797e-6
0.080, 4.139e-6, 1.758e-6, 3.747e-6
0.076, 4.076e-6, 1.700e-6, 3.705e-6
0.072, 4.020e-6, 1.645e-6, 3.668e-6
0.068, 3.980e-6, 1.607e-6, 3.641e-6
0.064, 3.928e-6, 1.551e-6, 3.609e-6
0.060, 3.887e-6, 1.518e-6, 3.578e-6
0.056, 3.862e-6, 1.481e-6, 3.567e-6
0.052, 3.836e-6, 1.447e-6, 3.553e-6
0.048, 3.796e-6, 1.422e-6, 3.520e-6
0.044, 3.784e-6, 1.408e-6, 3.512e-6
0.040, 3.764e-6, 1.387e-6, 3.499e-6
0.036, 3.748e-6, 1.369e-6, 3.489e-6
0.032, 3.722e-6, 1.349e-6, 3.469e-6
0.028, 3.716e-6, 1.343e-6, 3.465e-6
0.024, 3.706e-6, 1.327e-6, 3.461e-6
0.020, 3.694e-6, 1.316e-6, 3.451e-6
0.016, 3.690e-6, 1.306e-6, 3.451e-6
0.012, 3.681e-6, 1.299e-6, 3.444e-6
0.008, 3.677e-6, 1.294e-6, 3.442e-6
0.004, 3.675e-6, 1.291e-6, 3.441e-6
-0.000, 3.672e-6, 1.285e-6, 3.440e-6
-0.004, 3.670e-6, 1.284e-6, 3.438e-6
-0.008, 3.668e-6, 1.283e-6, 3.436e-6
-0.012, 3.672e-6, 1.280e-6, 3.442e-6
-0.016, 3.668e-6, 1.273e-6, 3.440e-6
-0.020, 3.666e-6, 1.282e-6, 3.435e-6
-0.024, 3.664e-6, 1.274e-6, 3.436e-6
-0.028, 3.666e-6, 1.280e-6, 3.436e-6
-0.032, 3.667e-6, 1.273e-6, 3.439e-6
-0.036, 3.672e-6, 1.277e-6, 3.443e-6
-0.040, 3.674e-6, 1.285e-6, 3.442e-6
-0.044, 3.679e-6, 1.282e-6, 3.448e-6
-0.048, 3.685e-6, 1.282e-6, 3.454e-6
-0.052, 3.676e-6, 1.283e-6, 3.445e-6
-0.056, 3.688e-6, 1.288e-6, 3.455e-6
-0.060, 3.693e-6, 1.286e-6, 3.461e-6
-0.064, 3.690e-6, 1.291e-6, 3.457e-6
-0.068, 3.698e-6, 1.292e-6, 3.465e-6
-0.072, 3.700e-6, 1.290e-6, 3.468e-6
-0.076, 3.703e-6, 1.295e-6, 3.469e-6
-0.080, 3.705e-6, 1.298e-6, 3.470e-6
-0.084, 3.708e-6, 1.305e-6, 3.471e-6
-0.088, 3.710e-6, 1.305e-6, 3.473e-6
-0.092, 3.719e-6, 1.310e-6, 3.480e-6
-0.096, 3.717e-6, 1.310e-6, 3.479e-6
-0.100, 3.721e-6, 1.315e-6, 3.481e-6
