Apr. 7, 2019   11:39:40
Chronocoulometry
File: D:\process\data\cc1.bin.txt
Data Source:  Experiment
Instrument Model:  CHI900D
Header: 
Note: 

Init E (V) = 0.5
Final E (V) = -0.1
Step = 2
Pulse Width (sec) = 0.25
Sample Interval (s) = 2.5e-4
Quiet Time (sec) = 2
Sensitivity (A/V) = 0.001

Forward:
Slp = 9.958e-6
Int = -7.097e-8
Cor = 1.00000

Reverse:
Slp = -7.358e-6
Int = -4.960e-7
Cor = -0.99844

Time/sec, Charge/C

2.500e-4, 1.180e-7
5.000e-4, 1.782e-7
7.500e-4, 2.247e-7
1.000e-3, 2.641e-7
1.250e-3, 2.991e-7
1.500e-3, 3.307e-7
1.750e-3, 3.600e-7
2.000e-3, 3.874e-7
2.250e-3, 4.131e-7
2.500e-3, 4.376e-7
2.750e-3, 4.608e-7
3.000e-3, 4.831e-7
3.250e-3, 5.046e-7
3.500e-3, 5.252e-7
3.750e-3, 5.452e-7
4.000e-3, 5.644e-7
4.250e-3, 5.832e-7
4.500e-3, 6.014e-7
4.750e-3, 6.192e-7
5.000e-3, 6.365e-7
5.250e-3, 6.534e-7
5.500e-3, 6.700e-7
5.750e-3, 6.861e-7
6.000e-3, 7.020e-7
6.250e-3, 7.175e-7
6.500e-3, 7.328e-7
6.750e-3, 7.478e-7
7.000e-3, 7.626e-7
7.250e-3, 7.770e-7
7.500e-3, 7.912e-7
7.750e-3, 8.052e-7
8.000e-3, 8.191e-7
8.250e-3, 8.327e-7
8.500e-3, 8.461e-7
8.750e-3, 8.592e-7
9.000e-3, 8.722e-7
9.250e-3, 8.850e-7
9.500e-3, 8.977e-7
9.750e-3, 9.102e-7
1.000e-2, 9.226e-7
1.025e-2, 9.348e-7
1.050e-2, 9.469e-7
1.075e-2, 9.588e-7
1.100e-2, 9.705e-7
1.125e-2, 9.823e-7
1.150e-2, 9.938e-7
1.175e-2, 1.005e-6
1.200e-2, 1.017e-6
1.225e-2, 1.028e-6
1.250e-2, 1.039e-6
1.275e-2, 1.050e-6
1.300e-2, 1.061e-6
1.325e-2, 1.072e-6
1.350e-2, 1.082e-6
1.375e-2, 1.093e-6
1.400e-2, 1.103e-6
1.425e-2, 1.114e-6
1.450e-2, 1.124e-6
1.475e-2, 1.134e-6
1.500e-2, 1.145e-6
1.525e-2, 1.155e-6
1.550e-2, 1.165e-6
1.575e-2, 1.174e-6
1.600e-2, 1.184e-6
1.625e-2, 1.194e-6
1.650e-2, 1.204e-6
1.675e-2, 1.214e-6
1.700e-2, 1.223e-6
1.725e-2, 1.233e-6
1.750e-2, 1.242e-6
1.775e-2, 1.252e-6
1.800e-2, 1.261e-6
1.825e-2, 1.270e-6
1.850e-2, 1.279e-6
1.875e-2, 1.288e-6
1.900e-2, 1.297e-6
1.925e-2, 1.306e-6
1.950e-2, 1.315e-6
1.975e-2, 1.324e-6
2.000e-2, 1.333e-6
2.025e-2, 1.342e-6
2.050e-2, 1.351e-6
2.075e-2, 1.359e-6
2.100e-2, 1.368e-6
2.125e-2, 1.377e-6
2.150e-2, 1.385e-6
2.175e-2, 1.393e-6
2.200e-2, 1.402e-6
2.225e-2, 1.410e-6
2.250e-2, 1.419e-6
2.275e-2, 1.427e-6
2.300e-2, 1.435e-6
2.325e-2, 1.443e-6
2.350e-2, 1.452e-6
2.375e-2, 1.460e-6
2.400e-2, 1.468e-6
2.425e-2, 1.476e-6
2.450e-2, 1.484e-6
2.475e-2, 1.492e-6
2.500e-2, 1.500e-6
2.525e-2, 1.508e-6
2.550e-2, 1.515e-6
2.575e-2, 1.523e-6
2.600e-2, 1.531e-6
2.625e-2, 1.539e-6
2.650e-2, 1.546e-6
2.675e-2, 1.554e-6
2.700e-2, 1.562e-6
2.725e-2, 1.569e-6
2.750e-2, 1.577e-6
2.775e-2, 1.584e-6
2.800e-2, 1.592e-6
2.825e-2, 1.599e-6
2.850e-2, 1.607e-6
2.875e-2, 1.614e-6
2.900e-2, 1.621e-6
2.925e-2, 1.629e-6
2.950e-2, 1.636e-6
2.975e-2, 1.643e-6
3.000e-2, 1.651e-6
3.025e-2, 1.658e-6
3.050e-2, 1.665e-6
3.075e-2, 1.672e-6
3.100e-2, 1.679e-6
3.125e-2, 1.686e-6
3.150e-2, 1.693e-6
3.175e-2, 1.700e-6
3.200e-2, 1.707e-6
3.225e-2, 1.714e-6
3.250e-2, 1.721e-6
3.275e-2, 1.728e-6
3.300e-2, 1.735e-6
3.325e-2, 1.742e-6
3.350e-2, 1.749e-6
3.375e-2, 1.756e-6
3.400e-2, 1.763e-6
3.425e-2, 1.769e-6
3.450e-2, 1.776e-6
3.475e-2, 1.783e-6
3.500e-2, 1.790e-6
3.525e-2, 1.796e-6
3.550e-2, 1.803e-6
3.575e-2, 1.809e-6
3.600e-2, 1.816e-6
3.625e-2, 1.823e-6
3.650e-2, 1.829e-6
3.675e-2, 1.836e-6
3.700e-2, 1.842e-6
3.725e-2, 1.849e-6
3.750e-2, 1.855e-6
3.775e-2, 1.861e-6
3.800e-2, 1.868e-6
3.825e-2, 1.874e-6
3.850e-2, 1.881e-6
3.875e-2, 1.887e-6
3.900e-2, 1.893e-6
3.925e-2, 1.900e-6
3.950e-2, 1.906e-6
3.975e-2, 1.912e-6
4.000e-2, 1.919e-6
4.025e-2, 1.925e-6
4.050e-2, 1.931e-6
4.075e-2, 1.937e-6
4.100e-2, 1.943e-6
4.125e-2, 1.950e-6
4.150e-2, 1.956e-6
4.175e-2, 1.962e-6
4.200e-2, 1.968e-6
4.225e-2, 1.974e-6
4.250e-2, 1.980e-6
4.275e-2, 1.986e-6
4.300e-2, 1.992e-6
4.325e-2, 1.998e-6
4.350e-2, 2.004e-6
4.375e-2, 2.010e-6
4.400e-2, 2.016e-6
4.425e-2, 2.022e-6
4.450e-2, 2.028e-6
4.475e-2, 2.034e-6
4.500e-2, 2.040e-6
4.525e-2, 2.046e-6
4.550e-2, 2.052e-6
4.575e-2, 2.058e-6
4.600e-2, 2.063e-6
4.625e-2, 2.069e-6
4.650e-2, 2.075e-6
4.675e-2, 2.081e-6
4.700e-2, 2.087e-6
4.725e-2, 2.092e-6
4.750e-2, 2.098e-6
4.775e-2, 2.104e-6
4.800e-2, 2.110e-6
4.825e-2, 2.115e-6
4.850e-2, 2.121e-6
4.875e-2, 2.127e-6
4.900e-2, 2.132e-6
4.925e-2, 2.138e-6
4.950e-2, 2.144e-6
4.975e-2, 2.149e-6
5.000e-2, 2.155e-6
5.025e-2, 2.160e-6
5.050e-2, 2.166e-6
5.075e-2, 2.171e-6
5.100e-2, 2.177e-6
5.125e-2, 2.182e-6
5.150e-2, 2.188e-6
5.175e-2, 2.193e-6
5.200e-2, 2.199e-6
5.225e-2, 2.204e-6
5.250e-2, 2.210e-6
5.275e-2, 2.215e-6
5.300e-2, 2.221e-6
5.325e-2, 2.226e-6
5.350e-2, 2.232e-6
5.375e-2, 2.237e-6
5.400e-2, 2.242e-6
5.425e-2, 2.248e-6
5.450e-2, 2.253e-6
5.475e-2, 2.258e-6
5.500e-2, 2.264e-6
5.525e-2, 2.269e-6
5.550e-2, 2.274e-6
5.575e-2, 2.280e-6
5.600e-2, 2.285e-6
5.625e-2, 2.290e-6
5.650e-2, 2.296e-6
5.675e-2, 2.301e-6
5.700e-2, 2.306e-6
5.725e-2, 2.311e-6
5.750e-2, 2.316e-6
5.775e-2, 2.322e-6
5.800e-2, 2.327e-6
5.825e-2, 2.332e-6
5.850e-2, 2.337e-6
5.875e-2, 2.343e-6
5.900e-2, 2.348e-6
5.925e-2, 2.353e-6
5.950e-2, 2.358e-6
5.975e-2, 2.363e-6
6.000e-2, 2.368e-6
6.025e-2, 2.373e-6
6.050e-2, 2.378e-6
6.075e-2, 2.383e-6
6.100e-2, 2.388e-6
6.125e-2, 2.393e-6
6.150e-2, 2.398e-6
6.175e-2, 2.404e-6
6.200e-2, 2.409e-6
6.225e-2, 2.414e-6
6.250e-2, 2.419e-6
6.275e-2, 2.423e-6
6.300e-2, 2.428e-6
6.325e-2, 2.433e-6
6.350e-2, 2.438e-6
6.375e-2, 2.443e-6
6.400e-2, 2.448e-6
6.425e-2, 2.453e-6
6.450e-2, 2.458e-6
6.475e-2, 2.463e-6
6.500e-2, 2.468e-6
6.525e-2, 2.473e-6
6.550e-2, 2.478e-6
6.575e-2, 2.483e-6
6.600e-2, 2.488e-6
6.625e-2, 2.492e-6
6.650e-2, 2.497e-6
6.675e-2, 2.502e-6
6.700e-2, 2.507e-6
6.725e-2, 2.512e-6
6.750e-2, 2.516e-6
6.775e-2, 2.521e-6
6.800e-2, 2.526e-6
6.825e-2, 2.531e-6
6.850e-2, 2.536e-6
6.875e-2, 2.540e-6
6.900e-2, 2.545e-6
6.925e-2, 2.550e-6
6.950e-2, 2.555e-6
6.975e-2, 2.559e-6
7.000e-2, 2.564e-6
7.025e-2, 2.569e-6
7.050e-2, 2.573e-6
7.075e-2, 2.578e-6
7.100e-2, 2.583e-6
7.125e-2, 2.587e-6
7.150e-2, 2.592e-6
7.175e-2, 2.597e-6
7.200e-2, 2.601e-6
7.225e-2, 2.606e-6
7.250e-2, 2.611e-6
7.275e-2, 2.615e-6
7.300e-2, 2.620e-6
7.325e-2, 2.624e-6
7.350e-2, 2.629e-6
7.375e-2, 2.634e-6
7.400e-2, 2.638e-6
7.425e-2, 2.643e-6
7.450e-2, 2.648e-6
7.475e-2, 2.652e-6
7.500e-2, 2.657e-6
7.525e-2, 2.661e-6
7.550e-2, 2.666e-6
7.575e-2, 2.670e-6
7.600e-2, 2.675e-6
7.625e-2, 2.679e-6
7.650e-2, 2.684e-6
7.675e-2, 2.688e-6
7.700e-2, 2.693e-6
7.725e-2, 2.697e-6
7.750e-2, 2.702e-6
7.775e-2, 2.706e-6
7.800e-2, 2.711e-6
7.825e-2, 2.715e-6
7.850e-2, 2.720e-6
7.875e-2, 2.724e-6
7.900e-2, 2.728e-6
7.925e-2, 2.733e-6
7.950e-2, 2.737e-6
7.975e-2, 2.742e-6
8.000e-2, 2.746e-6
8.025e-2, 2.751e-6
8.050e-2, 2.755e-6
8.075e-2, 2.759e-6
8.100e-2, 2.764e-6
8.125e-2, 2.768e-6
8.150e-2, 2.772e-6
8.175e-2, 2.777e-6
8.200e-2, 2.781e-6
8.225e-2, 2.785e-6
8.250e-2, 2.790e-6
8.275e-2, 2.794e-6
8.300e-2, 2.798e-6
8.325e-2, 2.803e-6
8.350e-2, 2.807e-6
8.375e-2, 2.811e-6
8.400e-2, 2.815e-6
8.425e-2, 2.820e-6
8.450e-2, 2.824e-6
8.475e-2, 2.828e-6
8.500e-2, 2.833e-6
8.525e-2, 2.837e-6
8.550e-2, 2.841e-6
8.575e-2, 2.845e-6
8.600e-2, 2.849e-6
8.625e-2, 2.854e-6
8.650e-2, 2.858e-6
8.675e-2, 2.862e-6
8.700e-2, 2.866e-6
8.725e-2, 2.871e-6
8.750e-2, 2.875e-6
8.775e-2, 2.879e-6
8.800e-2, 2.883e-6
8.825e-2, 2.888e-6
8.850e-2, 2.892e-6
8.875e-2, 2.896e-6
8.900e-2, 2.900e-6
8.925e-2, 2.904e-6
8.950e-2, 2.908e-6
8.975e-2, 2.913e-6
9.000e-2, 2.917e-6
9.025e-2, 2.921e-6
9.050e-2, 2.925e-6
9.075e-2, 2.929e-6
9.100e-2, 2.933e-6
9.125e-2, 2.937e-6
9.150e-2, 2.942e-6
9.175e-2, 2.946e-6
9.200e-2, 2.950e-6
9.225e-2, 2.954e-6
9.250e-2, 2.958e-6
9.275e-2, 2.962e-6
9.300e-2, 2.966e-6
9.325e-2, 2.970e-6
9.350e-2, 2.974e-6
9.375e-2, 2.978e-6
9.400e-2, 2.982e-6
9.425e-2, 2.987e-6
9.450e-2, 2.991e-6
9.475e-2, 2.995e-6
9.500e-2, 2.999e-6
9.525e-2, 3.003e-6
9.550e-2, 3.007e-6
9.575e-2, 3.011e-6
9.600e-2, 3.015e-6
9.625e-2, 3.019e-6
9.650e-2, 3.023e-6
9.675e-2, 3.027e-6
9.700e-2, 3.031e-6
9.725e-2, 3.035e-6
9.750e-2, 3.039e-6
9.775e-2, 3.043e-6
9.800e-2, 3.047e-6
9.825e-2, 3.051e-6
9.850e-2, 3.055e-6
9.875e-2, 3.059e-6
9.900e-2, 3.063e-6
9.925e-2, 3.067e-6
9.950e-2, 3.071e-6
9.975e-2, 3.074e-6
1.000e-1, 3.078e-6
1.002e-1, 3.082e-6
1.005e-1, 3.086e-6
1.007e-1, 3.090e-6
1.010e-1, 3.094e-6
1.012e-1, 3.098e-6
1.015e-1, 3.102e-6
1.017e-1, 3.106e-6
1.020e-1, 3.110e-6
1.022e-1, 3.113e-6
1.025e-1, 3.117e-6
1.027e-1, 3.121e-6
1.030e-1, 3.125e-6
1.032e-1, 3.129e-6
1.035e-1, 3.133e-6
1.037e-1, 3.137e-6
1.040e-1, 3.141e-6
1.042e-1, 3.144e-6
1.045e-1, 3.148e-6
1.047e-1, 3.152e-6
1.050e-1, 3.156e-6
1.052e-1, 3.160e-6
1.055e-1, 3.164e-6
1.057e-1, 3.167e-6
1.060e-1, 3.171e-6
1.062e-1, 3.175e-6
1.065e-1, 3.179e-6
1.067e-1, 3.183e-6
1.070e-1, 3.187e-6
1.072e-1, 3.190e-6
1.075e-1, 3.194e-6
1.077e-1, 3.198e-6
1.080e-1, 3.202e-6
1.082e-1, 3.205e-6
1.085e-1, 3.209e-6
1.087e-1, 3.213e-6
1.090e-1, 3.217e-6
1.092e-1, 3.221e-6
1.095e-1, 3.224e-6
1.097e-1, 3.228e-6
1.100e-1, 3.232e-6
1.102e-1, 3.235e-6
1.105e-1, 3.239e-6
1.107e-1, 3.243e-6
1.110e-1, 3.247e-6
1.112e-1, 3.251e-6
1.115e-1, 3.254e-6
1.117e-1, 3.258e-6
1.120e-1, 3.262e-6
1.122e-1, 3.265e-6
1.125e-1, 3.269e-6
1.127e-1, 3.273e-6
1.130e-1, 3.276e-6
1.132e-1, 3.280e-6
1.135e-1, 3.284e-6
1.137e-1, 3.287e-6
1.140e-1, 3.291e-6
1.142e-1, 3.295e-6
1.145e-1, 3.299e-6
1.147e-1, 3.302e-6
1.150e-1, 3.306e-6
1.152e-1, 3.310e-6
1.155e-1, 3.313e-6
1.157e-1, 3.317e-6
1.160e-1, 3.321e-6
1.162e-1, 3.324e-6
1.165e-1, 3.328e-6
1.167e-1, 3.332e-6
1.170e-1, 3.335e-6
1.172e-1, 3.339e-6
1.175e-1, 3.342e-6
1.177e-1, 3.346e-6
1.180e-1, 3.350e-6
1.182e-1, 3.353e-6
1.185e-1, 3.357e-6
1.187e-1, 3.361e-6
1.190e-1, 3.364e-6
1.192e-1, 3.368e-6
1.195e-1, 3.371e-6
1.197e-1, 3.375e-6
1.200e-1, 3.379e-6
1.202e-1, 3.382e-6
1.205e-1, 3.386e-6
1.207e-1, 3.389e-6
1.210e-1, 3.393e-6
1.212e-1, 3.397e-6
1.215e-1, 3.400e-6
1.217e-1, 3.404e-6
1.220e-1, 3.407e-6
1.222e-1, 3.411e-6
1.225e-1, 3.414e-6
1.227e-1, 3.418e-6
1.230e-1, 3.421e-6
1.232e-1, 3.425e-6
1.235e-1, 3.429e-6
1.237e-1, 3.432e-6
1.240e-1, 3.436e-6
1.242e-1, 3.439e-6
1.245e-1, 3.443e-6
1.247e-1, 3.446e-6
1.250e-1, 3.450e-6
1.252e-1, 3.453e-6
1.255e-1, 3.457e-6
1.257e-1, 3.460e-6
1.260e-1, 3.464e-6
1.262e-1, 3.467e-6
1.265e-1, 3.470e-6
1.267e-1, 3.474e-6
1.270e-1, 3.477e-6
1.272e-1, 3.481e-6
1.275e-1, 3.484e-6
1.277e-1, 3.488e-6
1.280e-1, 3.491e-6
1.282e-1, 3.495e-6
1.285e-1, 3.498e-6
1.287e-1, 3.502e-6
1.290e-1, 3.505e-6
1.292e-1, 3.509e-6
1.295e-1, 3.512e-6
1.297e-1, 3.516e-6
1.300e-1, 3.519e-6
1.302e-1, 3.522e-6
1.305e-1, 3.526e-6
1.307e-1, 3.529e-6
1.310e-1, 3.533e-6
1.312e-1, 3.536e-6
1.315e-1, 3.540e-6
1.317e-1, 3.543e-6
1.320e-1, 3.546e-6
1.322e-1, 3.550e-6
1.325e-1, 3.553e-6
1.327e-1, 3.557e-6
1.330e-1, 3.560e-6
1.332e-1, 3.563e-6
1.335e-1, 3.567e-6
1.337e-1, 3.570e-6
1.340e-1, 3.574e-6
1.342e-1, 3.577e-6
1.345e-1, 3.580e-6
1.347e-1, 3.584e-6
1.350e-1, 3.587e-6
1.352e-1, 3.591e-6
1.355e-1, 3.594e-6
1.357e-1, 3.597e-6
1.360e-1, 3.601e-6
1.362e-1, 3.604e-6
1.365e-1, 3.608e-6
1.367e-1, 3.611e-6
1.370e-1, 3.614e-6
1.372e-1, 3.618e-6
1.375e-1, 3.621e-6
1.377e-1, 3.624e-6
1.380e-1, 3.628e-6
1.382e-1, 3.631e-6
1.385e-1, 3.634e-6
1.387e-1, 3.638e-6
1.390e-1, 3.641e-6
1.392e-1, 3.644e-6
1.395e-1, 3.648e-6
1.397e-1, 3.651e-6
1.400e-1, 3.654e-6
1.402e-1, 3.658e-6
1.405e-1, 3.661e-6
1.407e-1, 3.664e-6
1.410e-1, 3.668e-6
1.412e-1, 3.671e-6
1.415e-1, 3.674e-6
1.417e-1, 3.677e-6
1.420e-1, 3.681e-6
1.422e-1, 3.684e-6
1.425e-1, 3.687e-6
1.427e-1, 3.691e-6
1.430e-1, 3.694e-6
1.432e-1, 3.697e-6
1.435e-1, 3.700e-6
1.437e-1, 3.704e-6
1.440e-1, 3.707e-6
1.442e-1, 3.710e-6
1.445e-1, 3.714e-6
1.447e-1, 3.717e-6
1.450e-1, 3.720e-6
1.452e-1, 3.723e-6
1.455e-1, 3.727e-6
1.457e-1, 3.730e-6
1.460e-1, 3.733e-6
1.462e-1, 3.737e-6
1.465e-1, 3.740e-6
1.467e-1, 3.743e-6
1.470e-1, 3.746e-6
1.472e-1, 3.749e-6
1.475e-1, 3.753e-6
1.477e-1, 3.756e-6
1.480e-1, 3.759e-6
1.482e-1, 3.762e-6
1.485e-1, 3.766e-6
1.487e-1, 3.769e-6
1.490e-1, 3.772e-6
1.492e-1, 3.775e-6
1.495e-1, 3.778e-6
1.497e-1, 3.782e-6
1.500e-1, 3.785e-6
1.502e-1, 3.788e-6
1.505e-1, 3.791e-6
1.507e-1, 3.794e-6
1.510e-1, 3.798e-6
1.512e-1, 3.801e-6
1.515e-1, 3.804e-6
1.517e-1, 3.807e-6
1.520e-1, 3.811e-6
1.522e-1, 3.814e-6
1.525e-1, 3.817e-6
1.527e-1, 3.820e-6
1.530e-1, 3.823e-6
1.532e-1, 3.826e-6
1.535e-1, 3.830e-6
1.537e-1, 3.833e-6
1.540e-1, 3.836e-6
1.542e-1, 3.839e-6
1.545e-1, 3.842e-6
1.547e-1, 3.845e-6
1.550e-1, 3.849e-6
1.552e-1, 3.852e-6
1.555e-1, 3.855e-6
1.557e-1, 3.858e-6
1.560e-1, 3.861e-6
1.562e-1, 3.864e-6
1.565e-1, 3.868e-6
1.567e-1, 3.871e-6
1.570e-1, 3.874e-6
1.572e-1, 3.877e-6
1.575e-1, 3.880e-6
1.577e-1, 3.883e-6
1.580e-1, 3.886e-6
1.582e-1, 3.889e-6
1.585e-1, 3.893e-6
1.587e-1, 3.896e-6
1.590e-1, 3.899e-6
1.592e-1, 3.902e-6
1.595e-1, 3.905e-6
1.597e-1, 3.908e-6
1.600e-1, 3.911e-6
1.602e-1, 3.914e-6
1.605e-1, 3.918e-6
1.607e-1, 3.921e-6
1.610e-1, 3.924e-6
1.612e-1, 3.927e-6
1.615e-1, 3.930e-6
1.617e-1, 3.933e-6
1.620e-1, 3.936e-6
1.622e-1, 3.939e-6
1.625e-1, 3.942e-6
1.627e-1, 3.945e-6
1.630e-1, 3.949e-6
1.632e-1, 3.952e-6
1.635e-1, 3.955e-6
1.637e-1, 3.958e-6
1.640e-1, 3.961e-6
1.642e-1, 3.964e-6
1.645e-1, 3.967e-6
1.647e-1, 3.970e-6
1.650e-1, 3.973e-6
1.652e-1, 3.976e-6
1.655e-1, 3.979e-6
1.657e-1, 3.982e-6
1.660e-1, 3.985e-6
1.662e-1, 3.988e-6
1.665e-1, 3.991e-6
1.667e-1, 3.995e-6
1.670e-1, 3.998e-6
1.672e-1, 4.001e-6
1.675e-1, 4.004e-6
1.677e-1, 4.007e-6
1.680e-1, 4.010e-6
1.682e-1, 4.013e-6
1.685e-1, 4.016e-6
1.687e-1, 4.019e-6
1.690e-1, 4.022e-6
1.692e-1, 4.025e-6
1.695e-1, 4.028e-6
1.697e-1, 4.031e-6
1.700e-1, 4.034e-6
1.702e-1, 4.037e-6
1.705e-1, 4.040e-6
1.707e-1, 4.043e-6
1.710e-1, 4.046e-6
1.712e-1, 4.049e-6
1.715e-1, 4.052e-6
1.717e-1, 4.055e-6
1.720e-1, 4.058e-6
1.722e-1, 4.061e-6
1.725e-1, 4.064e-6
1.727e-1, 4.067e-6
1.730e-1, 4.070e-6
1.732e-1, 4.073e-6
1.735e-1, 4.076e-6
1.737e-1, 4.079e-6
1.740e-1, 4.082e-6
1.742e-1, 4.085e-6
1.745e-1, 4.088e-6
1.747e-1, 4.091e-6
1.750e-1, 4.094e-6
1.752e-1, 4.097e-6
1.755e-1, 4.100e-6
1.757e-1, 4.103e-6
1.760e-1, 4.106e-6
1.762e-1, 4.109e-6
1.765e-1, 4.112e-6
1.767e-1, 4.115e-6
1.770e-1, 4.118e-6
1.772e-1, 4.121e-6
1.775e-1, 4.124e-6
1.777e-1, 4.126e-6
1.780e-1, 4.129e-6
1.782e-1, 4.132e-6
1.785e-1, 4.135e-6
1.787e-1, 4.138e-6
1.790e-1, 4.141e-6
1.792e-1, 4.144e-6
1.795e-1, 4.147e-6
1.797e-1, 4.150e-6
1.800e-1, 4.153e-6
1.802e-1, 4.156e-6
1.805e-1, 4.159e-6
1.807e-1, 4.162e-6
1.810e-1, 4.165e-6
1.812e-1, 4.168e-6
1.815e-1, 4.171e-6
1.817e-1, 4.173e-6
1.820e-1, 4.176e-6
1.822e-1, 4.179e-6
1.825e-1, 4.182e-6
1.827e-1, 4.185e-6
1.830e-1, 4.188e-6
1.832e-1, 4.191e-6
1.835e-1, 4.194e-6
1.837e-1, 4.197e-6
1.840e-1, 4.200e-6
1.842e-1, 4.203e-6
1.845e-1, 4.206e-6
1.847e-1, 4.209e-6
1.850e-1, 4.212e-6
1.852e-1, 4.214e-6
1.855e-1, 4.217e-6
1.857e-1, 4.220e-6
1.860e-1, 4.223e-6
1.862e-1, 4.226e-6
1.865e-1, 4.229e-6
1.867e-1, 4.232e-6
1.870e-1, 4.235e-6
1.872e-1, 4.238e-6
1.875e-1, 4.240e-6
1.877e-1, 4.243e-6
1.880e-1, 4.246e-6
1.882e-1, 4.249e-6
1.885e-1, 4.252e-6
1.887e-1, 4.255e-6
1.890e-1, 4.258e-6
1.892e-1, 4.261e-6
1.895e-1, 4.263e-6
1.897e-1, 4.266e-6
1.900e-1, 4.269e-6
1.902e-1, 4.272e-6
1.905e-1, 4.275e-6
1.907e-1, 4.278e-6
1.910e-1, 4.281e-6
1.912e-1, 4.283e-6
1.915e-1, 4.286e-6
1.917e-1, 4.289e-6
1.920e-1, 4.292e-6
1.922e-1, 4.295e-6
1.925e-1, 4.298e-6
1.927e-1, 4.300e-6
1.930e-1, 4.303e-6
1.932e-1, 4.306e-6
1.935e-1, 4.309e-6
1.937e-1, 4.312e-6
1.940e-1, 4.315e-6
1.942e-1, 4.317e-6
1.945e-1, 4.320e-6
1.947e-1, 4.323e-6
1.950e-1, 4.326e-6
1.952e-1, 4.329e-6
1.955e-1, 4.332e-6
1.957e-1, 4.334e-6
1.960e-1, 4.337e-6
1.962e-1, 4.340e-6
1.965e-1, 4.343e-6
1.967e-1, 4.346e-6
1.970e-1, 4.348e-6
1.972e-1, 4.351e-6
1.975e-1, 4.354e-6
1.977e-1, 4.357e-6
1.980e-1, 4.359e-6
1.982e-1, 4.362e-6
1.985e-1, 4.365e-6
1.987e-1, 4.368e-6
1.990e-1, 4.371e-6
1.992e-1, 4.374e-6
1.995e-1, 4.376e-6
1.997e-1, 4.379e-6
2.000e-1, 4.382e-6
2.002e-1, 4.385e-6
2.005e-1, 4.387e-6
2.007e-1, 4.390e-6
2.010e-1, 4.393e-6
2.012e-1, 4.396e-6
2.015e-1, 4.399e-6
2.017e-1, 4.401e-6
2.020e-1, 4.404e-6
2.022e-1, 4.407e-6
2.025e-1, 4.410e-6
2.027e-1, 4.412e-6
2.030e-1, 4.415e-6
2.032e-1, 4.418e-6
2.035e-1, 4.421e-6
2.037e-1, 4.423e-6
2.040e-1, 4.426e-6
2.042e-1, 4.429e-6
2.045e-1, 4.432e-6
2.047e-1, 4.434e-6
2.050e-1, 4.437e-6
2.052e-1, 4.440e-6
2.055e-1, 4.443e-6
2.057e-1, 4.446e-6
2.060e-1, 4.448e-6
2.062e-1, 4.451e-6
2.065e-1, 4.454e-6
2.067e-1, 4.457e-6
2.070e-1, 4.459e-6
2.072e-1, 4.462e-6
2.075e-1, 4.465e-6
2.077e-1, 4.467e-6
2.080e-1, 4.470e-6
2.082e-1, 4.473e-6
2.085e-1, 4.476e-6
2.087e-1, 4.478e-6
2.090e-1, 4.481e-6
2.092e-1, 4.484e-6
2.095e-1, 4.486e-6
2.097e-1, 4.489e-6
2.100e-1, 4.492e-6
2.102e-1, 4.495e-6
2.105e-1, 4.497e-6
2.107e-1, 4.500e-6
2.110e-1, 4.503e-6
2.112e-1, 4.506e-6
2.115e-1, 4.508e-6
2.117e-1, 4.511e-6
2.120e-1, 4.514e-6
2.122e-1, 4.516e-6
2.125e-1, 4.519e-6
2.127e-1, 4.522e-6
2.130e-1, 4.524e-6
2.132e-1, 4.527e-6
2.135e-1, 4.530e-6
2.137e-1, 4.532e-6
2.140e-1, 4.535e-6
2.142e-1, 4.538e-6
2.145e-1, 4.541e-6
2.147e-1, 4.543e-6
2.150e-1, 4.546e-6
2.152e-1, 4.549e-6
2.155e-1, 4.551e-6
2.157e-1, 4.554e-6
2.160e-1, 4.557e-6
2.162e-1, 4.560e-6
2.165e-1, 4.562e-6
2.167e-1, 4.565e-6
2.170e-1, 4.568e-6
2.172e-1, 4.570e-6
2.175e-1, 4.573e-6
2.177e-1, 4.576e-6
2.180e-1, 4.578e-6
2.182e-1, 4.581e-6
2.185e-1, 4.584e-6
2.187e-1, 4.586e-6
2.190e-1, 4.589e-6
2.192e-1, 4.591e-6
2.195e-1, 4.594e-6
2.197e-1, 4.597e-6
2.200e-1, 4.599e-6
2.202e-1, 4.602e-6
2.205e-1, 4.605e-6
2.207e-1, 4.607e-6
2.210e-1, 4.610e-6
2.212e-1, 4.613e-6
2.215e-1, 4.615e-6
2.217e-1, 4.618e-6
2.220e-1, 4.621e-6
2.222e-1, 4.623e-6
2.225e-1, 4.626e-6
2.227e-1, 4.629e-6
2.230e-1, 4.631e-6
2.232e-1, 4.634e-6
2.235e-1, 4.637e-6
2.237e-1, 4.639e-6
2.240e-1, 4.642e-6
2.242e-1, 4.644e-6
2.245e-1, 4.647e-6
2.247e-1, 4.650e-6
2.250e-1, 4.652e-6
2.252e-1, 4.655e-6
2.255e-1, 4.658e-6
2.257e-1, 4.660e-6
2.260e-1, 4.663e-6
2.262e-1, 4.666e-6
2.265e-1, 4.668e-6
2.267e-1, 4.671e-6
2.270e-1, 4.673e-6
2.272e-1, 4.676e-6
2.275e-1, 4.679e-6
2.277e-1, 4.681e-6
2.280e-1, 4.684e-6
2.282e-1, 4.687e-6
2.285e-1, 4.689e-6
2.287e-1, 4.692e-6
2.290e-1, 4.695e-6
2.292e-1, 4.697e-6
2.295e-1, 4.700e-6
2.297e-1, 4.702e-6
2.300e-1, 4.705e-6
2.302e-1, 4.708e-6
2.305e-1, 4.710e-6
2.307e-1, 4.713e-6
2.310e-1, 4.716e-6
2.312e-1, 4.718e-6
2.315e-1, 4.721e-6
2.317e-1, 4.723e-6
2.320e-1, 4.726e-6
2.322e-1, 4.728e-6
2.325e-1, 4.731e-6
2.327e-1, 4.734e-6
2.330e-1, 4.736e-6
2.332e-1, 4.739e-6
2.335e-1, 4.741e-6
2.337e-1, 4.744e-6
2.340e-1, 4.747e-6
2.342e-1, 4.749e-6
2.345e-1, 4.752e-6
2.347e-1, 4.754e-6
2.350e-1, 4.757e-6
2.352e-1, 4.760e-6
2.355e-1, 4.762e-6
2.357e-1, 4.765e-6
2.360e-1, 4.767e-6
2.362e-1, 4.770e-6
2.365e-1, 4.772e-6
2.367e-1, 4.775e-6
2.370e-1, 4.778e-6
2.372e-1, 4.780e-6
2.375e-1, 4.783e-6
2.377e-1, 4.785e-6
2.380e-1, 4.788e-6
2.382e-1, 4.790e-6
2.385e-1, 4.793e-6
2.387e-1, 4.795e-6
2.390e-1, 4.798e-6
2.392e-1, 4.800e-6
2.395e-1, 4.803e-6
2.397e-1, 4.806e-6
2.400e-1, 4.808e-6
2.402e-1, 4.811e-6
2.405e-1, 4.813e-6
2.407e-1, 4.816e-6
2.410e-1, 4.818e-6
2.412e-1, 4.821e-6
2.415e-1, 4.823e-6
2.417e-1, 4.826e-6
2.420e-1, 4.828e-6
2.422e-1, 4.831e-6
2.425e-1, 4.834e-6
2.427e-1, 4.836e-6
2.430e-1, 4.839e-6
2.432e-1, 4.841e-6
2.435e-1, 4.844e-6
2.437e-1, 4.846e-6
2.440e-1, 4.849e-6
2.442e-1, 4.851e-6
2.445e-1, 4.854e-6
2.447e-1, 4.856e-6
2.450e-1, 4.859e-6
2.452e-1, 4.861e-6
2.455e-1, 4.864e-6
2.457e-1, 4.866e-6
2.460e-1, 4.869e-6
2.462e-1, 4.872e-6
2.465e-1, 4.874e-6
2.467e-1, 4.877e-6
2.470e-1, 4.879e-6
2.472e-1, 4.882e-6
2.475e-1, 4.884e-6
2.477e-1, 4.887e-6
2.480e-1, 4.889e-6
2.482e-1, 4.892e-6
2.485e-1, 4.894e-6
2.487e-1, 4.897e-6
2.490e-1, 4.899e-6
2.492e-1, 4.902e-6
2.495e-1, 4.904e-6
2.497e-1, 4.907e-6
2.500e-1, 4.909e-6
2.502e-1, 4.606e-6
2.505e-1, 4.534e-6
2.507e-1, 4.487e-6
2.510e-1, 4.449e-6
2.512e-1, 4.416e-6
2.515e-1, 4.387e-6
2.517e-1, 4.361e-6
2.520e-1, 4.337e-6
2.522e-1, 4.315e-6
2.525e-1, 4.294e-6
2.527e-1, 4.274e-6
2.530e-1, 4.255e-6
2.532e-1, 4.237e-6
2.535e-1, 4.220e-6
2.537e-1, 4.204e-6
2.540e-1, 4.188e-6
2.542e-1, 4.173e-6
2.545e-1, 4.158e-6
2.547e-1, 4.144e-6
2.550e-1, 4.130e-6
2.552e-1, 4.117e-6
2.555e-1, 4.104e-6
2.557e-1, 4.091e-6
2.560e-1, 4.079e-6
2.562e-1, 4.067e-6
2.565e-1, 4.055e-6
2.567e-1, 4.044e-6
2.570e-1, 4.032e-6
2.572e-1, 4.021e-6
2.575e-1, 4.010e-6
2.577e-1, 4.000e-6
2.580e-1, 3.990e-6
2.582e-1, 3.979e-6
2.585e-1, 3.969e-6
2.587e-1, 3.959e-6
2.590e-1, 3.950e-6
2.592e-1, 3.940e-6
2.595e-1, 3.931e-6
2.597e-1, 3.922e-6
2.600e-1, 3.913e-6
2.602e-1, 3.904e-6
2.605e-1, 3.895e-6
2.607e-1, 3.886e-6
2.610e-1, 3.878e-6
2.612e-1, 3.869e-6
2.615e-1, 3.861e-6
2.617e-1, 3.853e-6
2.620e-1, 3.845e-6
2.622e-1, 3.837e-6
2.625e-1, 3.829e-6
2.627e-1, 3.821e-6
2.630e-1, 3.813e-6
2.632e-1, 3.806e-6
2.635e-1, 3.798e-6
2.637e-1, 3.791e-6
2.640e-1, 3.783e-6
2.642e-1, 3.776e-6
2.645e-1, 3.769e-6
2.647e-1, 3.762e-6
2.650e-1, 3.755e-6
2.652e-1, 3.748e-6
2.655e-1, 3.741e-6
2.657e-1, 3.734e-6
2.660e-1, 3.728e-6
2.662e-1, 3.721e-6
2.665e-1, 3.715e-6
2.667e-1, 3.708e-6
2.670e-1, 3.702e-6
2.672e-1, 3.695e-6
2.675e-1, 3.689e-6
2.677e-1, 3.683e-6
2.680e-1, 3.677e-6
2.682e-1, 3.670e-6
2.685e-1, 3.664e-6
2.687e-1, 3.658e-6
2.690e-1, 3.652e-6
2.692e-1, 3.646e-6
2.695e-1, 3.641e-6
2.697e-1, 3.635e-6
2.700e-1, 3.629e-6
2.702e-1, 3.623e-6
2.705e-1, 3.618e-6
2.707e-1, 3.612e-6
2.710e-1, 3.606e-6
2.712e-1, 3.601e-6
2.715e-1, 3.595e-6
2.717e-1, 3.590e-6
2.720e-1, 3.585e-6
2.722e-1, 3.579e-6
2.725e-1, 3.574e-6
2.727e-1, 3.569e-6
2.730e-1, 3.563e-6
2.732e-1, 3.558e-6
2.735e-1, 3.553e-6
2.737e-1, 3.548e-6
2.740e-1, 3.543e-6
2.742e-1, 3.538e-6
2.745e-1, 3.533e-6
2.747e-1, 3.528e-6
2.750e-1, 3.523e-6
2.752e-1, 3.518e-6
2.755e-1, 3.513e-6
2.757e-1, 3.508e-6
2.760e-1, 3.504e-6
2.762e-1, 3.499e-6
2.765e-1, 3.494e-6
2.767e-1, 3.490e-6
2.770e-1, 3.485e-6
2.772e-1, 3.480e-6
2.775e-1, 3.476e-6
2.777e-1, 3.471e-6
2.780e-1, 3.467e-6
2.782e-1, 3.462e-6
2.785e-1, 3.458e-6
2.787e-1, 3.453e-6
2.790e-1, 3.449e-6
2.792e-1, 3.444e-6
2.795e-1, 3.440e-6
2.797e-1, 3.436e-6
2.800e-1, 3.431e-6
2.802e-1, 3.427e-6
2.805e-1, 3.423e-6
2.807e-1, 3.419e-6
2.810e-1, 3.415e-6
2.812e-1, 3.410e-6
2.815e-1, 3.406e-6
2.817e-1, 3.402e-6
2.820e-1, 3.398e-6
2.822e-1, 3.394e-6
2.825e-1, 3.390e-6
2.827e-1, 3.386e-6
2.830e-1, 3.382e-6
2.832e-1, 3.378e-6
2.835e-1, 3.374e-6
2.837e-1, 3.370e-6
2.840e-1, 3.366e-6
2.842e-1, 3.362e-6
2.845e-1, 3.358e-6
2.847e-1, 3.355e-6
2.850e-1, 3.351e-6
2.852e-1, 3.347e-6
2.855e-1, 3.343e-6
2.857e-1, 3.339e-6
2.860e-1, 3.336e-6
2.862e-1, 3.332e-6
2.865e-1, 3.328e-6
2.867e-1, 3.325e-6
2.870e-1, 3.321e-6
2.872e-1, 3.317e-6
2.875e-1, 3.314e-6
2.877e-1, 3.310e-6
2.880e-1, 3.307e-6
2.882e-1, 3.303e-6
2.885e-1, 3.299e-6
2.887e-1, 3.296e-6
2.890e-1, 3.292e-6
2.892e-1, 3.289e-6
2.895e-1, 3.285e-6
2.897e-1, 3.282e-6
2.900e-1, 3.278e-6
2.902e-1, 3.275e-6
2.905e-1, 3.272e-6
2.907e-1, 3.268e-6
2.910e-1, 3.265e-6
2.912e-1, 3.262e-6
2.915e-1, 3.258e-6
2.917e-1, 3.255e-6
2.920e-1, 3.252e-6
2.922e-1, 3.248e-6
2.925e-1, 3.245e-6
2.927e-1, 3.242e-6
2.930e-1, 3.238e-6
2.932e-1, 3.235e-6
2.935e-1, 3.232e-6
2.937e-1, 3.229e-6
2.940e-1, 3.226e-6
2.942e-1, 3.222e-6
2.945e-1, 3.219e-6
2.947e-1, 3.216e-6
2.950e-1, 3.213e-6
2.952e-1, 3.210e-6
2.955e-1, 3.207e-6
2.957e-1, 3.204e-6
2.960e-1, 3.201e-6
2.962e-1, 3.198e-6
2.965e-1, 3.195e-6
2.967e-1, 3.192e-6
2.970e-1, 3.189e-6
2.972e-1, 3.186e-6
2.975e-1, 3.183e-6
2.977e-1, 3.180e-6
2.980e-1, 3.177e-6
2.982e-1, 3.174e-6
2.985e-1, 3.171e-6
2.987e-1, 3.168e-6
2.990e-1, 3.165e-6
2.992e-1, 3.162e-6
2.995e-1, 3.159e-6
2.998e-1, 3.156e-6
3.000e-1, 3.154e-6
3.003e-1, 3.151e-6
3.005e-1, 3.148e-6
3.008e-1, 3.145e-6
3.010e-1, 3.142e-6
3.013e-1, 3.139e-6
3.015e-1, 3.137e-6
3.018e-1, 3.134e-6
3.020e-1, 3.131e-6
3.023e-1, 3.128e-6
3.025e-1, 3.126e-6
3.028e-1, 3.123e-6
3.030e-1, 3.120e-6
3.033e-1, 3.118e-6
3.035e-1, 3.115e-6
3.038e-1, 3.112e-6
3.040e-1, 3.110e-6
3.043e-1, 3.107e-6
3.045e-1, 3.104e-6
3.048e-1, 3.102e-6
3.050e-1, 3.099e-6
3.053e-1, 3.097e-6
3.055e-1, 3.094e-6
3.058e-1, 3.092e-6
3.060e-1, 3.089e-6
3.063e-1, 3.086e-6
3.065e-1, 3.084e-6
3.068e-1, 3.081e-6
3.070e-1, 3.079e-6
3.073e-1, 3.076e-6
3.075e-1, 3.074e-6
3.078e-1, 3.071e-6
3.080e-1, 3.069e-6
3.083e-1, 3.066e-6
3.085e-1, 3.064e-6
3.088e-1, 3.061e-6
3.090e-1, 3.059e-6
3.093e-1, 3.056e-6
3.095e-1, 3.054e-6
3.098e-1, 3.051e-6
3.100e-1, 3.049e-6
3.103e-1, 3.047e-6
3.105e-1, 3.044e-6
3.108e-1, 3.042e-6
3.110e-1, 3.039e-6
3.113e-1, 3.037e-6
3.115e-1, 3.035e-6
3.118e-1, 3.032e-6
3.120e-1, 3.030e-6
3.123e-1, 3.028e-6
3.125e-1, 3.025e-6
3.128e-1, 3.023e-6
3.130e-1, 3.021e-6
3.133e-1, 3.018e-6
3.135e-1, 3.016e-6
3.138e-1, 3.014e-6
3.140e-1, 3.011e-6
3.143e-1, 3.009e-6
3.145e-1, 3.007e-6
3.148e-1, 3.005e-6
3.150e-1, 3.002e-6
3.153e-1, 3.000e-6
3.155e-1, 2.998e-6
3.158e-1, 2.996e-6
3.160e-1, 2.994e-6
3.163e-1, 2.991e-6
3.165e-1, 2.989e-6
3.168e-1, 2.987e-6
3.170e-1, 2.985e-6
3.173e-1, 2.983e-6
3.175e-1, 2.980e-6
3.178e-1, 2.978e-6
3.180e-1, 2.976e-6
3.183e-1, 2.974e-6
3.185e-1, 2.972e-6
3.188e-1, 2.970e-6
3.190e-1, 2.968e-6
3.193e-1, 2.965e-6
3.195e-1, 2.963e-6
3.198e-1, 2.961e-6
3.200e-1, 2.959e-6
3.203e-1, 2.957e-6
3.205e-1, 2.955e-6
3.208e-1, 2.953e-6
3.210e-1, 2.951e-6
3.213e-1, 2.949e-6
3.215e-1, 2.947e-6
3.218e-1, 2.945e-6
3.220e-1, 2.943e-6
3.223e-1, 2.940e-6
3.225e-1, 2.938e-6
3.228e-1, 2.936e-6
3.230e-1, 2.934e-6
3.233e-1, 2.932e-6
3.235e-1, 2.930e-6
3.238e-1, 2.928e-6
3.240e-1, 2.926e-6
3.243e-1, 2.924e-6
3.245e-1, 2.922e-6
3.248e-1, 2.921e-6
3.250e-1, 2.919e-6
3.253e-1, 2.917e-6
3.255e-1, 2.915e-6
3.258e-1, 2.913e-6
3.260e-1, 2.911e-6
3.263e-1, 2.909e-6
3.265e-1, 2.907e-6
3.268e-1, 2.905e-6
3.270e-1, 2.903e-6
3.273e-1, 2.901e-6
3.275e-1, 2.899e-6
3.278e-1, 2.897e-6
3.280e-1, 2.896e-6
3.283e-1, 2.894e-6
3.285e-1, 2.892e-6
3.288e-1, 2.890e-6
3.290e-1, 2.888e-6
3.293e-1, 2.886e-6
3.295e-1, 2.885e-6
3.298e-1, 2.883e-6
3.300e-1, 2.881e-6
3.303e-1, 2.879e-6
3.305e-1, 2.877e-6
3.308e-1, 2.875e-6
3.310e-1, 2.874e-6
3.313e-1, 2.872e-6
3.315e-1, 2.870e-6
3.318e-1, 2.868e-6
3.320e-1, 2.866e-6
3.323e-1, 2.865e-6
3.325e-1, 2.863e-6
3.328e-1, 2.861e-6
3.330e-1, 2.859e-6
3.333e-1, 2.858e-6
3.335e-1, 2.856e-6
3.338e-1, 2.854e-6
3.340e-1, 2.852e-6
3.343e-1, 2.851e-6
3.345e-1, 2.849e-6
3.348e-1, 2.847e-6
3.350e-1, 2.845e-6
3.353e-1, 2.844e-6
3.355e-1, 2.842e-6
3.358e-1, 2.840e-6
3.360e-1, 2.839e-6
3.363e-1, 2.837e-6
3.365e-1, 2.835e-6
3.368e-1, 2.833e-6
3.370e-1, 2.832e-6
3.373e-1, 2.830e-6
3.375e-1, 2.828e-6
3.378e-1, 2.827e-6
3.380e-1, 2.825e-6
3.383e-1, 2.823e-6
3.385e-1, 2.822e-6
3.388e-1, 2.820e-6
3.390e-1, 2.818e-6
3.393e-1, 2.817e-6
3.395e-1, 2.815e-6
3.398e-1, 2.814e-6
3.400e-1, 2.812e-6
3.403e-1, 2.810e-6
3.405e-1, 2.809e-6
3.408e-1, 2.807e-6
3.410e-1, 2.806e-6
3.413e-1, 2.804e-6
3.415e-1, 2.802e-6
3.418e-1, 2.801e-6
3.420e-1, 2.799e-6
3.423e-1, 2.798e-6
3.425e-1, 2.796e-6
3.428e-1, 2.795e-6
3.430e-1, 2.793e-6
3.433e-1, 2.791e-6
3.435e-1, 2.790e-6
3.438e-1, 2.788e-6
3.440e-1, 2.787e-6
3.443e-1, 2.785e-6
3.445e-1, 2.784e-6
3.448e-1, 2.782e-6
3.450e-1, 2.781e-6
3.453e-1, 2.779e-6
3.455e-1, 2.777e-6
3.458e-1, 2.776e-6
3.460e-1, 2.775e-6
3.463e-1, 2.773e-6
3.465e-1, 2.772e-6
3.468e-1, 2.770e-6
3.470e-1, 2.769e-6
3.473e-1, 2.767e-6
3.475e-1, 2.765e-6
3.478e-1, 2.764e-6
3.480e-1, 2.762e-6
3.483e-1, 2.761e-6
3.485e-1, 2.759e-6
3.488e-1, 2.758e-6
3.490e-1, 2.757e-6
3.493e-1, 2.755e-6
3.495e-1, 2.754e-6
3.498e-1, 2.752e-6
3.500e-1, 2.751e-6
3.503e-1, 2.749e-6
3.505e-1, 2.748e-6
3.508e-1, 2.746e-6
3.510e-1, 2.745e-6
3.513e-1, 2.744e-6
3.515e-1, 2.742e-6
3.518e-1, 2.741e-6
3.520e-1, 2.739e-6
3.523e-1, 2.738e-6
3.525e-1, 2.736e-6
3.528e-1, 2.735e-6
3.530e-1, 2.734e-6
3.533e-1, 2.732e-6
3.535e-1, 2.731e-6
3.538e-1, 2.730e-6
3.540e-1, 2.728e-6
3.543e-1, 2.727e-6
3.545e-1, 2.725e-6
3.548e-1, 2.724e-6
3.550e-1, 2.723e-6
3.553e-1, 2.721e-6
3.555e-1, 2.720e-6
3.558e-1, 2.719e-6
3.560e-1, 2.717e-6
3.563e-1, 2.716e-6
3.565e-1, 2.714e-6
3.568e-1, 2.713e-6
3.570e-1, 2.712e-6
3.573e-1, 2.710e-6
3.575e-1, 2.709e-6
3.578e-1, 2.708e-6
3.580e-1, 2.706e-6
3.583e-1, 2.705e-6
3.585e-1, 2.704e-6
3.588e-1, 2.702e-6
3.590e-1, 2.701e-6
3.593e-1, 2.700e-6
3.595e-1, 2.698e-6
3.598e-1, 2.697e-6
3.600e-1, 2.696e-6
3.603e-1, 2.695e-6
3.605e-1, 2.693e-6
3.608e-1, 2.692e-6
3.610e-1, 2.691e-6
3.613e-1, 2.689e-6
3.615e-1, 2.688e-6
3.618e-1, 2.687e-6
3.620e-1, 2.685e-6
3.623e-1, 2.684e-6
3.625e-1, 2.683e-6
3.628e-1, 2.682e-6
3.630e-1, 2.680e-6
3.633e-1, 2.679e-6
3.635e-1, 2.678e-6
3.638e-1, 2.677e-6
3.640e-1, 2.675e-6
3.643e-1, 2.674e-6
3.645e-1, 2.673e-6
3.648e-1, 2.672e-6
3.650e-1, 2.670e-6
3.653e-1, 2.669e-6
3.655e-1, 2.668e-6
3.658e-1, 2.667e-6
3.660e-1, 2.665e-6
3.663e-1, 2.664e-6
3.665e-1, 2.663e-6
3.668e-1, 2.662e-6
3.670e-1, 2.661e-6
3.673e-1, 2.659e-6
3.675e-1, 2.658e-6
3.678e-1, 2.657e-6
3.680e-1, 2.656e-6
3.683e-1, 2.655e-6
3.685e-1, 2.654e-6
3.688e-1, 2.652e-6
3.690e-1, 2.651e-6
3.693e-1, 2.650e-6
3.695e-1, 2.649e-6
3.698e-1, 2.648e-6
3.700e-1, 2.646e-6
3.703e-1, 2.645e-6
3.705e-1, 2.644e-6
3.708e-1, 2.643e-6
3.710e-1, 2.642e-6
3.713e-1, 2.641e-6
3.715e-1, 2.639e-6
3.718e-1, 2.638e-6
3.720e-1, 2.637e-6
3.723e-1, 2.636e-6
3.725e-1, 2.635e-6
3.728e-1, 2.634e-6
3.730e-1, 2.632e-6
3.733e-1, 2.631e-6
3.735e-1, 2.630e-6
3.738e-1, 2.629e-6
3.740e-1, 2.628e-6
3.743e-1, 2.627e-6
3.745e-1, 2.626e-6
3.748e-1, 2.624e-6
3.750e-1, 2.623e-6
3.753e-1, 2.622e-6
3.755e-1, 2.621e-6
3.758e-1, 2.620e-6
3.760e-1, 2.619e-6
3.763e-1, 2.618e-6
3.765e-1, 2.617e-6
3.768e-1, 2.616e-6
3.770e-1, 2.615e-6
3.773e-1, 2.613e-6
3.775e-1, 2.612e-6
3.778e-1, 2.611e-6
3.780e-1, 2.610e-6
3.783e-1, 2.609e-6
3.785e-1, 2.608e-6
3.788e-1, 2.607e-6
3.790e-1, 2.606e-6
3.793e-1, 2.605e-6
3.795e-1, 2.604e-6
3.798e-1, 2.603e-6
3.800e-1, 2.602e-6
3.803e-1, 2.601e-6
3.805e-1, 2.600e-6
3.808e-1, 2.599e-6
3.810e-1, 2.598e-6
3.813e-1, 2.596e-6
3.815e-1, 2.595e-6
3.818e-1, 2.594e-6
3.820e-1, 2.593e-6
3.823e-1, 2.592e-6
3.825e-1, 2.591e-6
3.828e-1, 2.590e-6
3.830e-1, 2.589e-6
3.833e-1, 2.588e-6
3.835e-1, 2.587e-6
3.838e-1, 2.586e-6
3.840e-1, 2.585e-6
3.843e-1, 2.584e-6
3.845e-1, 2.583e-6
3.848e-1, 2.582e-6
3.850e-1, 2.581e-6
3.853e-1, 2.580e-6
3.855e-1, 2.579e-6
3.858e-1, 2.578e-6
3.860e-1, 2.577e-6
3.863e-1, 2.576e-6
3.865e-1, 2.575e-6
3.868e-1, 2.574e-6
3.870e-1, 2.573e-6
3.873e-1, 2.572e-6
3.875e-1, 2.571e-6
3.878e-1, 2.570e-6
3.880e-1, 2.569e-6
3.883e-1, 2.568e-6
3.885e-1, 2.567e-6
3.888e-1, 2.566e-6
3.890e-1, 2.565e-6
3.893e-1, 2.564e-6
3.895e-1, 2.563e-6
3.898e-1, 2.562e-6
3.900e-1, 2.561e-6
3.903e-1, 2.561e-6
3.905e-1, 2.560e-6
3.908e-1, 2.559e-6
3.910e-1, 2.558e-6
3.913e-1, 2.557e-6
3.915e-1, 2.556e-6
3.918e-1, 2.555e-6
3.920e-1, 2.554e-6
3.923e-1, 2.553e-6
3.925e-1, 2.552e-6
3.928e-1, 2.551e-6
3.930e-1, 2.550e-6
3.933e-1, 2.549e-6
3.935e-1, 2.548e-6
3.938e-1, 2.547e-6
3.940e-1, 2.546e-6
3.943e-1, 2.545e-6
3.945e-1, 2.545e-6
3.948e-1, 2.544e-6
3.950e-1, 2.543e-6
3.953e-1, 2.542e-6
3.955e-1, 2.541e-6
3.958e-1, 2.540e-6
3.960e-1, 2.539e-6
3.963e-1, 2.538e-6
3.965e-1, 2.537e-6
3.968e-1, 2.536e-6
3.970e-1, 2.535e-6
3.973e-1, 2.535e-6
3.975e-1, 2.534e-6
3.978e-1, 2.533e-6
3.980e-1, 2.532e-6
3.983e-1, 2.531e-6
3.985e-1, 2.530e-6
3.988e-1, 2.529e-6
3.990e-1, 2.528e-6
3.993e-1, 2.527e-6
3.995e-1, 2.526e-6
3.998e-1, 2.525e-6
4.000e-1, 2.525e-6
4.003e-1, 2.524e-6
4.005e-1, 2.523e-6
4.008e-1, 2.522e-6
4.010e-1, 2.521e-6
4.013e-1, 2.520e-6
4.015e-1, 2.519e-6
4.018e-1, 2.518e-6
4.020e-1, 2.517e-6
4.023e-1, 2.517e-6
4.025e-1, 2.516e-6
4.028e-1, 2.515e-6
4.030e-1, 2.514e-6
4.033e-1, 2.513e-6
4.035e-1, 2.512e-6
4.038e-1, 2.511e-6
4.040e-1, 2.511e-6
4.043e-1, 2.510e-6
4.045e-1, 2.509e-6
4.048e-1, 2.508e-6
4.050e-1, 2.507e-6
4.053e-1, 2.506e-6
4.055e-1, 2.505e-6
4.058e-1, 2.505e-6
4.060e-1, 2.504e-6
4.063e-1, 2.503e-6
4.065e-1, 2.502e-6
4.068e-1, 2.501e-6
4.070e-1, 2.500e-6
4.073e-1, 2.500e-6
4.075e-1, 2.499e-6
4.078e-1, 2.498e-6
4.080e-1, 2.497e-6
4.083e-1, 2.496e-6
4.085e-1, 2.496e-6
4.088e-1, 2.495e-6
4.090e-1, 2.494e-6
4.093e-1, 2.493e-6
4.095e-1, 2.492e-6
4.098e-1, 2.492e-6
4.100e-1, 2.491e-6
4.103e-1, 2.490e-6
4.105e-1, 2.489e-6
4.108e-1, 2.488e-6
4.110e-1, 2.488e-6
4.113e-1, 2.487e-6
4.115e-1, 2.486e-6
4.118e-1, 2.485e-6
4.120e-1, 2.484e-6
4.123e-1, 2.484e-6
4.125e-1, 2.483e-6
4.128e-1, 2.482e-6
4.130e-1, 2.481e-6
4.133e-1, 2.480e-6
4.135e-1, 2.480e-6
4.138e-1, 2.479e-6
4.140e-1, 2.478e-6
4.143e-1, 2.477e-6
4.145e-1, 2.477e-6
4.148e-1, 2.476e-6
4.150e-1, 2.475e-6
4.153e-1, 2.474e-6
4.155e-1, 2.473e-6
4.158e-1, 2.473e-6
4.160e-1, 2.472e-6
4.163e-1, 2.471e-6
4.165e-1, 2.470e-6
4.168e-1, 2.470e-6
4.170e-1, 2.469e-6
4.173e-1, 2.468e-6
4.175e-1, 2.467e-6
4.178e-1, 2.466e-6
4.180e-1, 2.466e-6
4.183e-1, 2.465e-6
4.185e-1, 2.464e-6
4.188e-1, 2.464e-6
4.190e-1, 2.463e-6
4.193e-1, 2.462e-6
4.195e-1, 2.461e-6
4.198e-1, 2.460e-6
4.200e-1, 2.460e-6
4.203e-1, 2.459e-6
4.205e-1, 2.458e-6
4.208e-1, 2.457e-6
4.210e-1, 2.457e-6
4.213e-1, 2.456e-6
4.215e-1, 2.455e-6
4.218e-1, 2.454e-6
4.220e-1, 2.454e-6
4.223e-1, 2.453e-6
4.225e-1, 2.452e-6
4.228e-1, 2.452e-6
4.230e-1, 2.451e-6
4.233e-1, 2.450e-6
4.235e-1, 2.449e-6
4.238e-1, 2.449e-6
4.240e-1, 2.448e-6
4.243e-1, 2.447e-6
4.245e-1, 2.447e-6
4.248e-1, 2.446e-6
4.250e-1, 2.445e-6
4.253e-1, 2.444e-6
4.255e-1, 2.444e-6
4.258e-1, 2.443e-6
4.260e-1, 2.442e-6
4.263e-1, 2.442e-6
4.265e-1, 2.441e-6
4.268e-1, 2.440e-6
4.270e-1, 2.439e-6
4.273e-1, 2.439e-6
4.275e-1, 2.438e-6
4.278e-1, 2.437e-6
4.280e-1, 2.437e-6
4.283e-1, 2.436e-6
4.285e-1, 2.435e-6
4.288e-1, 2.435e-6
4.290e-1, 2.434e-6
4.293e-1, 2.433e-6
4.295e-1, 2.432e-6
4.298e-1, 2.432e-6
4.300e-1, 2.431e-6
4.303e-1, 2.430e-6
4.305e-1, 2.430e-6
4.308e-1, 2.429e-6
4.310e-1, 2.428e-6
4.313e-1, 2.428e-6
4.315e-1, 2.427e-6
4.318e-1, 2.426e-6
4.320e-1, 2.426e-6
4.323e-1, 2.425e-6
4.325e-1, 2.424e-6
4.328e-1, 2.424e-6
4.330e-1, 2.423e-6
4.333e-1, 2.422e-6
4.335e-1, 2.422e-6
4.338e-1, 2.421e-6
4.340e-1, 2.420e-6
4.343e-1, 2.420e-6
4.345e-1, 2.419e-6
4.348e-1, 2.418e-6
4.350e-1, 2.417e-6
4.353e-1, 2.417e-6
4.355e-1, 2.416e-6
4.358e-1, 2.416e-6
4.360e-1, 2.415e-6
4.363e-1, 2.414e-6
4.365e-1, 2.414e-6
4.368e-1, 2.413e-6
4.370e-1, 2.412e-6
4.373e-1, 2.412e-6
4.375e-1, 2.411e-6
4.378e-1, 2.411e-6
4.380e-1, 2.410e-6
4.383e-1, 2.409e-6
4.385e-1, 2.409e-6
4.388e-1, 2.408e-6
4.390e-1, 2.407e-6
4.393e-1, 2.407e-6
4.395e-1, 2.406e-6
4.398e-1, 2.405e-6
4.400e-1, 2.405e-6
4.403e-1, 2.404e-6
4.405e-1, 2.404e-6
4.408e-1, 2.403e-6
4.410e-1, 2.402e-6
4.413e-1, 2.402e-6
4.415e-1, 2.401e-6
4.418e-1, 2.400e-6
4.420e-1, 2.400e-6
4.423e-1, 2.399e-6
4.425e-1, 2.399e-6
4.428e-1, 2.398e-6
4.430e-1, 2.397e-6
4.433e-1, 2.397e-6
4.435e-1, 2.396e-6
4.438e-1, 2.396e-6
4.440e-1, 2.395e-6
4.443e-1, 2.394e-6
4.445e-1, 2.394e-6
4.448e-1, 2.393e-6
4.450e-1, 2.392e-6
4.453e-1, 2.392e-6
4.455e-1, 2.391e-6
4.458e-1, 2.391e-6
4.460e-1, 2.390e-6
4.463e-1, 2.390e-6
4.465e-1, 2.389e-6
4.468e-1, 2.388e-6
4.470e-1, 2.388e-6
4.473e-1, 2.387e-6
4.475e-1, 2.386e-6
4.478e-1, 2.386e-6
4.480e-1, 2.385e-6
4.483e-1, 2.385e-6
4.485e-1, 2.384e-6
4.488e-1, 2.384e-6
4.490e-1, 2.383e-6
4.493e-1, 2.382e-6
4.495e-1, 2.382e-6
4.498e-1, 2.381e-6
4.500e-1, 2.381e-6
4.503e-1, 2.380e-6
4.505e-1, 2.379e-6
4.508e-1, 2.379e-6
4.510e-1, 2.378e-6
4.513e-1, 2.378e-6
4.515e-1, 2.377e-6
4.518e-1, 2.376e-6
4.520e-1, 2.376e-6
4.523e-1, 2.375e-6
4.525e-1, 2.375e-6
4.528e-1, 2.374e-6
4.530e-1, 2.373e-6
4.533e-1, 2.373e-6
4.535e-1, 2.372e-6
4.538e-1, 2.372e-6
4.540e-1, 2.371e-6
4.543e-1, 2.371e-6
4.545e-1, 2.370e-6
4.548e-1, 2.370e-6
4.550e-1, 2.369e-6
4.553e-1, 2.369e-6
4.555e-1, 2.368e-6
4.558e-1, 2.368e-6
4.560e-1, 2.367e-6
4.563e-1, 2.366e-6
4.565e-1, 2.366e-6
4.568e-1, 2.365e-6
4.570e-1, 2.365e-6
4.573e-1, 2.364e-6
4.575e-1, 2.364e-6
4.578e-1, 2.363e-6
4.580e-1, 2.363e-6
4.583e-1, 2.362e-6
4.585e-1, 2.361e-6
4.588e-1, 2.361e-6
4.590e-1, 2.360e-6
4.593e-1, 2.360e-6
4.595e-1, 2.359e-6
4.598e-1, 2.359e-6
4.600e-1, 2.358e-6
4.603e-1, 2.358e-6
4.605e-1, 2.357e-6
4.608e-1, 2.357e-6
4.610e-1, 2.356e-6
4.613e-1, 2.355e-6
4.615e-1, 2.355e-6
4.618e-1, 2.354e-6
4.620e-1, 2.354e-6
4.623e-1, 2.353e-6
4.625e-1, 2.353e-6
4.628e-1, 2.352e-6
4.630e-1, 2.352e-6
4.633e-1, 2.351e-6
4.635e-1, 2.351e-6
4.638e-1, 2.350e-6
4.640e-1, 2.350e-6
4.643e-1, 2.349e-6
4.645e-1, 2.349e-6
4.648e-1, 2.348e-6
4.650e-1, 2.348e-6
4.653e-1, 2.347e-6
4.655e-1, 2.347e-6
4.658e-1, 2.346e-6
4.660e-1, 2.346e-6
4.663e-1, 2.345e-6
4.665e-1, 2.345e-6
4.668e-1, 2.344e-6
4.670e-1, 2.343e-6
4.673e-1, 2.343e-6
4.675e-1, 2.342e-6
4.678e-1, 2.342e-6
4.680e-1, 2.341e-6
4.683e-1, 2.341e-6
4.685e-1, 2.340e-6
4.688e-1, 2.340e-6
4.690e-1, 2.339e-6
4.693e-1, 2.339e-6
4.695e-1, 2.339e-6
4.698e-1, 2.338e-6
4.700e-1, 2.338e-6
4.703e-1, 2.337e-6
4.705e-1, 2.337e-6
4.708e-1, 2.336e-6
4.710e-1, 2.336e-6
4.713e-1, 2.335e-6
4.715e-1, 2.335e-6
4.718e-1, 2.334e-6
4.720e-1, 2.334e-6
4.723e-1, 2.333e-6
4.725e-1, 2.333e-6
4.728e-1, 2.332e-6
4.730e-1, 2.332e-6
4.733e-1, 2.331e-6
4.735e-1, 2.331e-6
4.738e-1, 2.330e-6
4.740e-1, 2.330e-6
4.743e-1, 2.329e-6
4.745e-1, 2.329e-6
4.748e-1, 2.328e-6
4.750e-1, 2.328e-6
4.753e-1, 2.327e-6
4.755e-1, 2.327e-6
4.758e-1, 2.326e-6
4.760e-1, 2.326e-6
4.763e-1, 2.326e-6
4.765e-1, 2.325e-6
4.768e-1, 2.325e-6
4.770e-1, 2.324e-6
4.773e-1, 2.324e-6
4.775e-1, 2.323e-6
4.778e-1, 2.323e-6
4.780e-1, 2.322e-6
4.783e-1, 2.322e-6
4.785e-1, 2.321e-6
4.788e-1, 2.321e-6
4.790e-1, 2.320e-6
4.793e-1, 2.320e-6
4.795e-1, 2.319e-6
4.798e-1, 2.319e-6
4.800e-1, 2.318e-6
4.803e-1, 2.318e-6
4.805e-1, 2.317e-6
4.808e-1, 2.317e-6
4.810e-1, 2.317e-6
4.813e-1, 2.316e-6
4.815e-1, 2.316e-6
4.818e-1, 2.315e-6
4.820e-1, 2.315e-6
4.823e-1, 2.314e-6
4.825e-1, 2.314e-6
4.828e-1, 2.313e-6
4.830e-1, 2.313e-6
4.833e-1, 2.313e-6
4.835e-1, 2.312e-6
4.838e-1, 2.312e-6
4.840e-1, 2.311e-6
4.843e-1, 2.311e-6
4.845e-1, 2.310e-6
4.848e-1, 2.310e-6
4.850e-1, 2.309e-6
4.853e-1, 2.309e-6
4.855e-1, 2.309e-6
4.858e-1, 2.308e-6
4.860e-1, 2.308e-6
4.863e-1, 2.307e-6
4.865e-1, 2.307e-6
4.868e-1, 2.307e-6
4.870e-1, 2.306e-6
4.873e-1, 2.306e-6
4.875e-1, 2.305e-6
4.878e-1, 2.305e-6
4.880e-1, 2.304e-6
4.883e-1, 2.304e-6
4.885e-1, 2.303e-6
4.888e-1, 2.303e-6
4.890e-1, 2.302e-6
4.893e-1, 2.302e-6
4.895e-1, 2.301e-6
4.898e-1, 2.301e-6
4.900e-1, 2.300e-6
4.903e-1, 2.300e-6
4.905e-1, 2.300e-6
4.908e-1, 2.299e-6
4.910e-1, 2.299e-6
4.913e-1, 2.298e-6
4.915e-1, 2.298e-6
4.918e-1, 2.298e-6
4.920e-1, 2.297e-6
4.923e-1, 2.297e-6
4.925e-1, 2.296e-6
4.928e-1, 2.296e-6
4.930e-1, 2.296e-6
4.933e-1, 2.295e-6
4.935e-1, 2.295e-6
4.938e-1, 2.294e-6
4.940e-1, 2.294e-6
4.943e-1, 2.294e-6
4.945e-1, 2.293e-6
4.948e-1, 2.293e-6
4.950e-1, 2.292e-6
4.953e-1, 2.292e-6
4.955e-1, 2.291e-6
4.958e-1, 2.291e-6
4.960e-1, 2.291e-6
4.963e-1, 2.290e-6
4.965e-1, 2.290e-6
4.968e-1, 2.289e-6
4.970e-1, 2.289e-6
4.973e-1, 2.289e-6
4.975e-1, 2.288e-6
4.978e-1, 2.288e-6
4.980e-1, 2.287e-6
4.983e-1, 2.287e-6
4.985e-1, 2.287e-6
4.988e-1, 2.286e-6
4.990e-1, 2.286e-6
4.993e-1, 2.285e-6
4.995e-1, 2.285e-6
4.998e-1, 2.284e-6
5.000e-1, 2.284e-6
