Apr. 7, 2019   11:32:55
Cyclic Voltammetry
File: D:\process\data\cv1.bin.txt
Data Source:  Experiment
Instrument Model:  CHI900D
Header: 
Note: 

Init E (V) = 0.5
High E (V) = 0.5
Low E (V) = -0.1
Init P/N = N
Scan Rate (V/s) = 0.2
Segment = 2
Sample Interval (V) = 0.001
Quiet Time (sec) = 2
Sensitivity (A/V) = 1e-6

Segment 1:
Segment 2:

Potential/V, Current/A

0.500, -3.560e-7
0.499, -2.439e-7
0.498, -2.001e-7
0.497, -1.674e-7
0.496, -1.431e-7
0.495, -1.159e-7
0.494, -9.419e-8
0.493, -7.581e-8
0.492, -5.358e-8
0.491, -3.864e-8
0.490, -2.319e-8
0.489, -4.700e-9
0.488, 8.205e-9
0.487, 2.437e-8
0.486, 3.572e-8
0.485, 4.953e-8
0.484, 6.438e-8
0.483, 7.251e-8
0.482, 8.588e-8
0.481, 9.884e-8
0.480, 1.076e-7
0.479, 1.206e-7
0.478, 1.288e-7
0.477, 1.383e-7
0.476, 1.509e-7
0.475, 1.585e-7
0.474, 1.663e-7
0.473, 1.775e-7
0.472, 1.847e-7
0.471, 1.943e-7
0.470, 2.023e-7
0.469, 2.101e-7
0.468, 2.208e-7
0.467, 2.259e-7
0.466, 2.339e-7
0.465, 2.439e-7
0.464, 2.470e-7
0.463, 2.586e-7
0.462, 2.641e-7
0.461, 2.707e-7
0.460, 2.798e-7
0.459, 2.833e-7
0.458, 2.908e-7
0.457, 2.999e-7
0.456, 3.045e-7
0.455, 3.125e-7
0.454, 3.179e-7
0.453, 3.238e-7
0.452, 3.325e-7
0.451, 3.347e-7
0.450, 3.419e-7
0.449, 3.501e-7
0.448, 3.515e-7
0.447, 3.606e-7
0.446, 3.655e-7
0.445, 3.692e-7
0.444, 3.776e-7
0.443, 3.813e-7
0.442, 3.865e-7
0.441, 3.940e-7
0.440, 3.966e-7
0.439, 4.040e-7
0.438, 4.073e-7
0.437, 4.132e-7
0.436, 4.202e-7
0.435, 4.205e-7
0.434, 4.275e-7
0.433, 4.343e-7
0.432, 4.364e-7
0.431, 4.435e-7
0.430, 4.476e-7
0.429, 4.513e-7
0.428, 4.587e-7
0.427, 4.606e-7
0.426, 4.647e-7
0.425, 4.712e-7
0.424, 4.749e-7
0.423, 4.803e-7
0.422, 4.828e-7
0.421, 4.874e-7
0.420, 4.944e-7
0.419, 4.946e-7
0.418, 5.003e-7
0.417, 5.072e-7
0.416, 5.077e-7
0.415, 5.154e-7
0.414, 5.173e-7
0.413, 5.207e-7
0.412, 5.275e-7
0.411, 5.300e-7
0.410, 5.365e-7
0.409, 5.414e-7
0.408, 5.414e-7
0.407, 5.472e-7
0.406, 5.500e-7
0.405, 5.544e-7
0.404, 5.600e-7
0.403, 5.611e-7
0.402, 5.656e-7
0.401, 5.716e-7
0.400, 5.721e-7
0.399, 5.788e-7
0.398, 5.813e-7
0.397, 5.841e-7
0.396, 5.899e-7
0.395, 5.918e-7
0.394, 5.945e-7
0.393, 6.013e-7
0.392, 6.029e-7
0.391, 6.086e-7
0.390, 6.119e-7
0.389, 6.148e-7
0.388, 6.208e-7
0.387, 6.211e-7
0.386, 6.264e-7
0.385, 6.320e-7
0.384, 6.314e-7
0.383, 6.382e-7
0.382, 6.414e-7
0.381, 6.442e-7
0.380, 6.504e-7
0.379, 6.525e-7
0.378, 6.562e-7
0.377, 6.619e-7
0.376, 6.642e-7
0.375, 6.693e-7
0.374, 6.721e-7
0.373, 6.765e-7
0.372, 6.818e-7
0.371, 6.819e-7
0.370, 6.878e-7
0.369, 6.934e-7
0.368, 6.942e-7
0.367, 7.010e-7
0.366, 7.044e-7
0.365, 7.081e-7
0.364, 7.148e-7
0.363, 7.166e-7
0.362, 7.204e-7
0.361, 7.269e-7
0.360, 7.296e-7
0.359, 7.356e-7
0.358, 7.387e-7
0.357, 7.426e-7
0.356, 7.498e-7
0.355, 7.506e-7
0.354, 7.569e-7
0.353, 7.638e-7
0.352, 7.653e-7
0.351, 7.735e-7
0.350, 7.761e-7
0.349, 7.807e-7
0.348, 7.881e-7
0.347, 7.917e-7
0.346, 7.961e-7
0.345, 8.042e-7
0.344, 8.066e-7
0.343, 8.151e-7
0.342, 8.186e-7
0.341, 8.252e-7
0.340, 8.332e-7
0.339, 8.367e-7
0.338, 8.431e-7
0.337, 8.514e-7
0.336, 8.545e-7
0.335, 8.644e-7
0.334, 8.700e-7
0.333, 8.736e-7
0.332, 8.849e-7
0.331, 8.892e-7
0.330, 8.968e-7
0.329, 9.068e-7
0.328, 9.117e-7
0.327, 9.219e-7
0.326, 9.292e-7
0.325, 9.365e-7
0.324, 9.475e-7
0.323, 9.539e-7
0.322, 9.638e-7
0.321, 9.746e-7
0.320, 9.793e-7
0.319, 9.930e-7
0.318, 1.002e-6
0.317, 1.011e-6
0.316, 1.024e-6
0.315, 1.033e-6
0.314, 1.044e-6
0.313, 1.059e-6
0.312, 1.067e-6
0.311, 1.081e-6
0.310, 1.092e-6
0.309, 1.106e-6
0.308, 1.122e-6
0.307, 1.131e-6
0.306, 1.146e-6
0.305, 1.162e-6
0.304, 1.174e-6
0.303, 1.192e-6
0.302, 1.207e-6
0.301, 1.223e-6
0.300, 1.243e-6
0.299, 1.256e-6
0.298, 1.274e-6
0.297, 1.295e-6
0.296, 1.311e-6
0.295, 1.334e-6
0.294, 1.350e-6
0.293, 1.372e-6
0.292, 1.396e-6
0.291, 1.413e-6
0.290, 1.439e-6
0.289, 1.464e-6
0.288, 1.485e-6
0.287, 1.513e-6
0.286, 1.537e-6
0.285, 1.562e-6
0.284, 1.592e-6
0.283, 1.620e-6
0.282, 1.646e-6
0.281, 1.678e-6
0.280, 1.706e-6
0.279, 1.739e-6
0.278, 1.769e-6
0.277, 1.805e-6
0.276, 1.840e-6
0.275, 1.873e-6
0.274, 1.911e-6
0.273, 1.950e-6
0.272, 1.983e-6
0.271, 2.028e-6
0.270, 2.066e-6
0.269, 2.105e-6
0.268, 2.151e-6
0.267, 2.192e-6
0.266, 2.238e-6
0.265, 2.286e-6
0.264, 2.330e-6
0.263, 2.383e-6
0.262, 2.429e-6
0.261, 2.481e-6
0.260, 2.535e-6
0.259, 2.584e-6
0.258, 2.641e-6
0.257, 2.699e-6
0.256, 2.750e-6
0.255, 2.813e-6
0.254, 2.868e-6
0.253, 2.927e-6
0.252, 2.991e-6
0.251, 3.052e-6
0.250, 3.116e-6
0.249, 3.183e-6
0.248, 3.244e-6
0.247, 3.316e-6
0.246, 3.377e-6
0.245, 3.450e-6
0.244, 3.522e-6
0.243, 3.584e-6
0.242, 3.659e-6
0.241, 3.733e-6
0.240, 3.801e-6
0.239, 3.881e-6
0.238, 3.951e-6
0.237, 4.027e-6
0.236, 4.105e-6
0.235, 4.177e-6
0.234, 4.254e-6
0.233, 4.333e-6
0.232, 4.407e-6
0.231, 4.488e-6
0.230, 4.553e-6
0.229, 4.634e-6
0.228, 4.713e-6
0.227, 4.783e-6
0.226, 4.864e-6
0.225, 4.943e-6
0.224, 5.013e-6
0.223, 5.095e-6
0.222, 5.163e-6
0.221, 5.236e-6
0.220, 5.310e-6
0.219, 5.380e-6
0.218, 5.447e-6
0.217, 5.520e-6
0.216, 5.584e-6
0.215, 5.656e-6
0.214, 5.714e-6
0.213, 5.783e-6
0.212, 5.848e-6
0.211, 5.903e-6
0.210, 5.967e-6
0.209, 6.027e-6
0.208, 6.075e-6
0.207, 6.135e-6
0.206, 6.185e-6
0.205, 6.240e-6
0.204, 6.290e-6
0.203, 6.329e-6
0.202, 6.374e-6
0.201, 6.417e-6
0.200, 6.454e-6
0.199, 6.498e-6
0.198, 6.527e-6
0.197, 6.564e-6
0.196, 6.598e-6
0.195, 6.621e-6
0.194, 6.652e-6
0.193, 6.680e-6
0.192, 6.695e-6
0.191, 6.723e-6
0.190, 6.741e-6
0.189, 6.755e-6
0.188, 6.774e-6
0.187, 6.787e-6
0.186, 6.798e-6
0.185, 6.811e-6
0.184, 6.814e-6
0.183, 6.829e-6
0.182, 6.826e-6
0.181, 6.832e-6
0.180, 6.837e-6
0.179, 6.827e-6
0.178, 6.831e-6
0.177, 6.831e-6
0.176, 6.820e-6
0.175, 6.820e-6
0.174, 6.812e-6
0.173, 6.804e-6
0.172, 6.800e-6
0.171, 6.782e-6
0.170, 6.774e-6
0.169, 6.764e-6
0.168, 6.749e-6
0.167, 6.738e-6
0.166, 6.718e-6
0.165, 6.704e-6
0.164, 6.692e-6
0.163, 6.667e-6
0.162, 6.653e-6
0.161, 6.640e-6
0.160, 6.615e-6
0.159, 6.602e-6
0.158, 6.580e-6
0.157, 6.558e-6
0.156, 6.540e-6
0.155, 6.518e-6
0.154, 6.496e-6
0.153, 6.477e-6
0.152, 6.452e-6
0.151, 6.434e-6
0.150, 6.408e-6
0.149, 6.388e-6
0.148, 6.368e-6
0.147, 6.343e-6
0.146, 6.322e-6
0.145, 6.301e-6
0.144, 6.273e-6
0.143, 6.257e-6
0.142, 6.231e-6
0.141, 6.207e-6
0.140, 6.188e-6
0.139, 6.162e-6
0.138, 6.140e-6
0.137, 6.120e-6
0.136, 6.095e-6
0.135, 6.077e-6
0.134, 6.051e-6
0.133, 6.031e-6
0.132, 6.010e-6
0.131, 5.985e-6
0.130, 5.965e-6
0.129, 5.945e-6
0.128, 5.919e-6
0.127, 5.902e-6
0.126, 5.878e-6
0.125, 5.857e-6
0.124, 5.841e-6
0.123, 5.817e-6
0.122, 5.797e-6
0.121, 5.779e-6
0.120, 5.757e-6
0.119, 5.740e-6
0.118, 5.718e-6
0.117, 5.700e-6
0.116, 5.683e-6
0.115, 5.660e-6
0.114, 5.642e-6
0.113, 5.625e-6
0.112, 5.603e-6
0.111, 5.589e-6
0.110, 5.571e-6
0.109, 5.551e-6
0.108, 5.537e-6
0.107, 5.516e-6
0.106, 5.499e-6
0.105, 5.484e-6
0.104, 5.466e-6
0.103, 5.452e-6
0.102, 5.433e-6
0.101, 5.416e-6
0.100, 5.403e-6
0.099, 5.383e-6
0.098, 5.369e-6
0.097, 5.356e-6
0.096, 5.337e-6
0.095, 5.325e-6
0.094, 5.309e-6
0.093, 5.294e-6
0.092, 5.282e-6
0.091, 5.266e-6
0.090, 5.251e-6
0.089, 5.239e-6
0.088, 5.223e-6
0.087, 5.212e-6
0.086, 5.197e-6
0.085, 5.184e-6
0.084, 5.174e-6
0.083, 5.158e-6
0.082, 5.146e-6
0.081, 5.136e-6
0.080, 5.120e-6
0.079, 5.112e-6
0.078, 5.099e-6
0.077, 5.085e-6
0.076, 5.076e-6
0.075, 5.063e-6
0.074, 5.051e-6
0.073, 5.044e-6
0.072, 5.030e-6
0.071, 5.022e-6
0.070, 5.011e-6
0.069, 5.000e-6
0.068, 4.992e-6
0.067, 4.979e-6
0.066, 4.971e-6
0.065, 4.964e-6
0.064, 4.950e-6
0.063, 4.945e-6
0.062, 4.934e-6
0.061, 4.924e-6
0.060, 4.919e-6
0.059, 4.909e-6
0.058, 4.900e-6
0.057, 4.894e-6
0.056, 4.884e-6
0.055, 4.879e-6
0.054, 4.869e-6
0.053, 4.862e-6
0.052, 4.858e-6
0.051, 4.846e-6
0.050, 4.841e-6
0.049, 4.836e-6
0.048, 4.825e-6
0.047, 4.823e-6
0.046, 4.815e-6
0.045, 4.809e-6
0.044, 4.805e-6
0.043, 4.797e-6
0.042, 4.791e-6
0.041, 4.788e-6
0.040, 4.781e-6
0.039, 4.777e-6
0.038, 4.771e-6
0.037, 4.766e-6
0.036, 4.764e-6
0.035, 4.755e-6
0.034, 4.753e-6
0.033, 4.751e-6
0.032, 4.743e-6
0.031, 4.743e-6
0.030, 4.738e-6
0.029, 4.733e-6
0.028, 4.731e-6
0.027, 4.727e-6
0.026, 4.722e-6
0.025, 4.722e-6
0.024, 4.716e-6
0.023, 4.716e-6
0.022, 4.712e-6
0.021, 4.710e-6
0.020, 4.710e-6
0.019, 4.705e-6
0.018, 4.703e-6
0.017, 4.704e-6
0.016, 4.698e-6
0.015, 4.700e-6
0.014, 4.698e-6
0.013, 4.695e-6
0.012, 4.696e-6
0.011, 4.693e-6
0.010, 4.692e-6
0.009, 4.694e-6
0.008, 4.691e-6
0.007, 4.693e-6
0.006, 4.691e-6
0.005, 4.692e-6
0.004, 4.693e-6
0.003, 4.691e-6
0.002, 4.693e-6
0.001, 4.695e-6
0.000, 4.698e-6
-0.001, 4.697e-6
-0.002, 4.697e-6
-0.003, 4.695e-6
-0.004, 4.700e-6
-0.005, 4.699e-6
-0.006, 4.701e-6
-0.007, 4.705e-6
-0.008, 4.704e-6
-0.009, 4.708e-6
-0.010, 4.709e-6
-0.011, 4.711e-6
-0.012, 4.715e-6
-0.013, 4.715e-6
-0.014, 4.718e-6
-0.015, 4.723e-6
-0.016, 4.722e-6
-0.017, 4.730e-6
-0.018, 4.732e-6
-0.019, 4.734e-6
-0.020, 4.741e-6
-0.021, 4.742e-6
-0.022, 4.746e-6
-0.023, 4.752e-6
-0.024, 4.754e-6
-0.025, 4.761e-6
-0.026, 4.762e-6
-0.027, 4.767e-6
-0.028, 4.775e-6
-0.029, 4.777e-6
-0.030, 4.783e-6
-0.031, 4.791e-6
-0.032, 4.794e-6
-0.033, 4.801e-6
-0.034, 4.807e-6
-0.035, 4.811e-6
-0.036, 4.821e-6
-0.037, 4.824e-6
-0.038, 4.831e-6
-0.039, 4.840e-6
-0.040, 4.844e-6
-0.041, 4.854e-6
-0.042, 4.858e-6
-0.043, 4.867e-6
-0.044, 4.877e-6
-0.045, 4.882e-6
-0.046, 4.890e-6
-0.047, 4.901e-6
-0.048, 4.906e-6
-0.049, 4.917e-6
-0.050, 4.925e-6
-0.051, 4.933e-6
-0.052, 4.945e-6
-0.053, 4.951e-6
-0.054, 4.960e-6
-0.055, 4.972e-6
-0.056, 4.980e-6
-0.057, 4.993e-6
-0.058, 5.001e-6
-0.059, 5.011e-6
-0.060, 5.024e-6
-0.061, 5.032e-6
-0.062, 5.045e-6
-0.063, 5.058e-6
-0.064, 5.065e-6
-0.065, 5.079e-6
-0.066, 5.091e-6
-0.067, 5.100e-6
-0.068, 5.118e-6
-0.069, 5.126e-6
-0.070, 5.140e-6
-0.071, 5.155e-6
-0.072, 5.165e-6
-0.073, 5.181e-6
-0.074, 5.192e-6
-0.075, 5.207e-6
-0.076, 5.223e-6
-0.077, 5.232e-6
-0.078, 5.249e-6
-0.079, 5.265e-6
-0.080, 5.277e-6
-0.081, 5.296e-6
-0.082, 5.309e-6
-0.083, 5.325e-6
-0.084, 5.342e-6
-0.085, 5.357e-6
-0.086, 5.372e-6
-0.087, 5.391e-6
-0.088, 5.406e-6
-0.089, 5.424e-6
-0.090, 5.440e-6
-0.091, 5.457e-6
-0.092, 5.477e-6
-0.093, 5.492e-6
-0.094, 5.511e-6
-0.095, 5.532e-6
-0.096, 5.548e-6
-0.097, 5.570e-6
-0.098, 5.587e-6
-0.099, 5.605e-6
-0.100, 5.362e-6
-0.099, 5.082e-6
-0.098, 4.957e-6
-0.097, 4.851e-6
-0.096, 4.760e-6
-0.095, 4.674e-6
-0.094, 4.592e-6
-0.093, 4.521e-6
-0.092, 4.446e-6
-0.091, 4.379e-6
-0.090, 4.316e-6
-0.089, 4.249e-6
-0.088, 4.191e-6
-0.087, 4.133e-6
-0.086, 4.075e-6
-0.085, 4.022e-6
-0.084, 3.967e-6
-0.083, 3.917e-6
-0.082, 3.866e-6
-0.081, 3.816e-6
-0.080, 3.773e-6
-0.079, 3.726e-6
-0.078, 3.679e-6
-0.077, 3.640e-6
-0.076, 3.594e-6
-0.075, 3.553e-6
-0.074, 3.514e-6
-0.073, 3.472e-6
-0.072, 3.435e-6
-0.071, 3.397e-6
-0.070, 3.359e-6
-0.069, 3.325e-6
-0.068, 3.288e-6
-0.067, 3.256e-6
-0.066, 3.221e-6
-0.065, 3.186e-6
-0.064, 3.157e-6
-0.063, 3.123e-6
-0.062, 3.089e-6
-0.061, 3.064e-6
-0.060, 3.029e-6
-0.059, 3.002e-6
-0.058, 2.973e-6
-0.057, 2.943e-6
-0.056, 2.916e-6
-0.055, 2.890e-6
-0.054, 2.861e-6
-0.053, 2.837e-6
-0.052, 2.809e-6
-0.051, 2.786e-6
-0.050, 2.759e-6
-0.049, 2.733e-6
-0.048, 2.711e-6
-0.047, 2.686e-6
-0.046, 2.661e-6
-0.045, 2.641e-6
-0.044, 2.616e-6
-0.043, 2.594e-6
-0.042, 2.573e-6
-0.041, 2.549e-6
-0.040, 2.531e-6
-0.039, 2.509e-6
-0.038, 2.486e-6
-0.037, 2.467e-6
-0.036, 2.446e-6
-0.035, 2.428e-6
-0.034, 2.407e-6
-0.033, 2.386e-6
-0.032, 2.370e-6
-0.031, 2.350e-6
-0.030, 2.330e-6
-0.029, 2.315e-6
-0.028, 2.294e-6
-0.027, 2.278e-6
-0.026, 2.261e-6
-0.025, 2.241e-6
-0.024, 2.225e-6
-0.023, 2.209e-6
-0.022, 2.190e-6
-0.021, 2.175e-6
-0.020, 2.157e-6
-0.019, 2.143e-6
-0.018, 2.126e-6
-0.017, 2.109e-6
-0.016, 2.096e-6
-0.015, 2.079e-6
-0.014, 2.063e-6
-0.013, 2.051e-6
-0.012, 2.032e-6
-0.011, 2.019e-6
-0.010, 2.005e-6
-0.009, 1.989e-6
-0.008, 1.976e-6
-0.007, 1.961e-6
-0.006, 1.945e-6
-0.005, 1.934e-6
-0.004, 1.917e-6
-0.003, 1.907e-6
-0.002, 1.892e-6
-0.001, 1.876e-6
-0.000, 1.861e-6
0.001, 1.850e-6
0.002, 1.835e-6
0.003, 1.826e-6
0.004, 1.810e-6
0.005, 1.798e-6
0.006, 1.787e-6
0.007, 1.772e-6
0.008, 1.760e-6
0.009, 1.749e-6
0.010, 1.735e-6
0.011, 1.725e-6
0.012, 1.710e-6
0.013, 1.701e-6
0.014, 1.686e-6
0.015, 1.673e-6
0.016, 1.665e-6
0.017, 1.652e-6
0.018, 1.638e-6
0.019, 1.629e-6
0.020, 1.614e-6
0.021, 1.604e-6
0.022, 1.593e-6
0.023, 1.580e-6
0.024, 1.570e-6
0.025, 1.559e-6
0.026, 1.546e-6
0.027, 1.536e-6
0.028, 1.522e-6
0.029, 1.514e-6
0.030, 1.502e-6
0.031, 1.488e-6
0.032, 1.479e-6
0.033, 1.468e-6
0.034, 1.454e-6
0.035, 1.447e-6
0.036, 1.433e-6
0.037, 1.424e-6
0.038, 1.413e-6
0.039, 1.400e-6
0.040, 1.390e-6
0.041, 1.379e-6
0.042, 1.366e-6
0.043, 1.358e-6
0.044, 1.344e-6
0.045, 1.335e-6
0.046, 1.324e-6
0.047, 1.311e-6
0.048, 1.303e-6
0.049, 1.291e-6
0.050, 1.278e-6
0.051, 1.270e-6
0.052, 1.256e-6
0.053, 1.245e-6
0.054, 1.236e-6
0.055, 1.222e-6
0.056, 1.213e-6
0.057, 1.201e-6
0.058, 1.188e-6
0.059, 1.178e-6
0.060, 1.166e-6
0.061, 1.157e-6
0.062, 1.145e-6
0.063, 1.132e-6
0.064, 1.124e-6
0.065, 1.111e-6
0.066, 1.097e-6
0.067, 1.089e-6
0.068, 1.075e-6
0.069, 1.064e-6
0.070, 1.053e-6
0.071, 1.039e-6
0.072, 1.029e-6
0.073, 1.018e-6
0.074, 1.004e-6
0.075, 9.942e-7
0.076, 9.802e-7
0.077, 9.719e-7
0.078, 9.572e-7
0.079, 9.428e-7
0.080, 9.343e-7
0.081, 9.210e-7
0.082, 9.059e-7
0.083, 8.964e-7
0.084, 8.808e-7
0.085, 8.705e-7
0.086, 8.585e-7
0.087, 8.433e-7
0.088, 8.324e-7
0.089, 8.199e-7
0.090, 8.050e-7
0.091, 7.925e-7
0.092, 7.771e-7
0.093, 7.666e-7
0.094, 7.524e-7
0.095, 7.368e-7
0.096, 7.253e-7
0.097, 7.103e-7
0.098, 6.941e-7
0.099, 6.843e-7
0.100, 6.657e-7
0.101, 6.539e-7
0.102, 6.391e-7
0.103, 6.213e-7
0.104, 6.074e-7
0.105, 5.935e-7
0.106, 5.765e-7
0.107, 5.631e-7
0.108, 5.435e-7
0.109, 5.301e-7
0.110, 5.133e-7
0.111, 4.950e-7
0.112, 4.825e-7
0.113, 4.638e-7
0.114, 4.440e-7
0.115, 4.314e-7
0.116, 4.092e-7
0.117, 3.937e-7
0.118, 3.753e-7
0.119, 3.539e-7
0.120, 3.380e-7
0.121, 3.170e-7
0.122, 2.961e-7
0.123, 2.779e-7
0.124, 2.557e-7
0.125, 2.372e-7
0.126, 2.149e-7
0.127, 1.909e-7
0.128, 1.745e-7
0.129, 1.476e-7
0.130, 1.226e-7
0.131, 1.035e-7
0.132, 7.568e-8
0.133, 5.257e-8
0.134, 2.781e-8
0.135, -1.764e-9
0.136, -2.524e-8
0.137, -5.225e-8
0.138, -8.128e-8
0.139, -1.071e-7
0.140, -1.397e-7
0.141, -1.642e-7
0.142, -1.977e-7
0.143, -2.318e-7
0.144, -2.593e-7
0.145, -2.930e-7
0.146, -3.298e-7
0.147, -3.602e-7
0.148, -3.995e-7
0.149, -4.328e-7
0.150, -4.689e-7
0.151, -5.099e-7
0.152, -5.450e-7
0.153, -5.863e-7
0.154, -6.281e-7
0.155, -6.689e-7
0.156, -7.150e-7
0.157, -7.526e-7
0.158, -8.002e-7
0.159, -8.499e-7
0.160, -8.926e-7
0.161, -9.430e-7
0.162, -9.934e-7
0.163, -1.038e-6
0.164, -1.095e-6
0.165, -1.144e-6
0.166, -1.197e-6
0.167, -1.253e-6
0.168, -1.308e-6
0.169, -1.366e-6
0.170, -1.425e-6
0.171, -1.482e-6
0.172, -1.547e-6
0.173, -1.602e-6
0.174, -1.669e-6
0.175, -1.735e-6
0.176, -1.793e-6
0.177, -1.863e-6
0.178, -1.930e-6
0.179, -1.990e-6
0.180, -2.066e-6
0.181, -2.135e-6
0.182, -2.202e-6
0.183, -2.278e-6
0.184, -2.347e-6
0.185, -2.422e-6
0.186, -2.497e-6
0.187, -2.567e-6
0.188, -2.649e-6
0.189, -2.716e-6
0.190, -2.794e-6
0.191, -2.874e-6
0.192, -2.942e-6
0.193, -3.023e-6
0.194, -3.102e-6
0.195, -3.172e-6
0.196, -3.259e-6
0.197, -3.328e-6
0.198, -3.406e-6
0.199, -3.487e-6
0.200, -3.558e-6
0.201, -3.635e-6
0.202, -3.709e-6
0.203, -3.780e-6
0.204, -3.862e-6
0.205, -3.932e-6
0.206, -4.006e-6
0.207, -4.079e-6
0.208, -4.141e-6
0.209, -4.213e-6
0.210, -4.283e-6
0.211, -4.344e-6
0.212, -4.415e-6
0.213, -4.473e-6
0.214, -4.535e-6
0.215, -4.597e-6
0.216, -4.649e-6
0.217, -4.707e-6
0.218, -4.762e-6
0.219, -4.812e-6
0.220, -4.869e-6
0.221, -4.911e-6
0.222, -4.959e-6
0.223, -5.007e-6
0.224, -5.045e-6
0.225, -5.088e-6
0.226, -5.128e-6
0.227, -5.156e-6
0.228, -5.199e-6
0.229, -5.221e-6
0.230, -5.252e-6
0.231, -5.282e-6
0.232, -5.306e-6
0.233, -5.332e-6
0.234, -5.351e-6
0.235, -5.368e-6
0.236, -5.390e-6
0.237, -5.400e-6
0.238, -5.415e-6
0.239, -5.430e-6
0.240, -5.429e-6
0.241, -5.440e-6
0.242, -5.448e-6
0.243, -5.444e-6
0.244, -5.452e-6
0.245, -5.450e-6
0.246, -5.447e-6
0.247, -5.447e-6
0.248, -5.437e-6
0.249, -5.435e-6
0.250, -5.426e-6
0.251, -5.417e-6
0.252, -5.410e-6
0.253, -5.391e-6
0.254, -5.381e-6
0.255, -5.371e-6
0.256, -5.349e-6
0.257, -5.339e-6
0.258, -5.324e-6
0.259, -5.300e-6
0.260, -5.287e-6
0.261, -5.265e-6
0.262, -5.245e-6
0.263, -5.228e-6
0.264, -5.203e-6
0.265, -5.181e-6
0.266, -5.160e-6
0.267, -5.135e-6
0.268, -5.114e-6
0.269, -5.086e-6
0.270, -5.064e-6
0.271, -5.043e-6
0.272, -5.013e-6
0.273, -4.989e-6
0.274, -4.967e-6
0.275, -4.938e-6
0.276, -4.916e-6
0.277, -4.888e-6
0.278, -4.861e-6
0.279, -4.838e-6
0.280, -4.809e-6
0.281, -4.782e-6
0.282, -4.758e-6
0.283, -4.731e-6
0.284, -4.708e-6
0.285, -4.678e-6
0.286, -4.655e-6
0.287, -4.631e-6
0.288, -4.602e-6
0.289, -4.578e-6
0.290, -4.555e-6
0.291, -4.526e-6
0.292, -4.505e-6
0.293, -4.477e-6
0.294, -4.451e-6
0.295, -4.430e-6
0.296, -4.404e-6
0.297, -4.380e-6
0.298, -4.358e-6
0.299, -4.332e-6
0.300, -4.312e-6
0.301, -4.286e-6
0.302, -4.264e-6
0.303, -4.244e-6
0.304, -4.217e-6
0.305, -4.197e-6
0.306, -4.176e-6
0.307, -4.153e-6
0.308, -4.135e-6
0.309, -4.111e-6
0.310, -4.090e-6
0.311, -4.072e-6
0.312, -4.049e-6
0.313, -4.030e-6
0.314, -4.011e-6
0.315, -3.991e-6
0.316, -3.973e-6
0.317, -3.951e-6
0.318, -3.933e-6
0.319, -3.917e-6
0.320, -3.894e-6
0.321, -3.879e-6
0.322, -3.863e-6
0.323, -3.842e-6
0.324, -3.828e-6
0.325, -3.810e-6
0.326, -3.792e-6
0.327, -3.779e-6
0.328, -3.760e-6
0.329, -3.743e-6
0.330, -3.729e-6
0.331, -3.711e-6
0.332, -3.699e-6
0.333, -3.680e-6
0.334, -3.667e-6
0.335, -3.655e-6
0.336, -3.636e-6
0.337, -3.625e-6
0.338, -3.611e-6
0.339, -3.596e-6
0.340, -3.584e-6
0.341, -3.570e-6
0.342, -3.555e-6
0.343, -3.545e-6
0.344, -3.530e-6
0.345, -3.517e-6
0.346, -3.506e-6
0.347, -3.492e-6
0.348, -3.483e-6
0.349, -3.468e-6
0.350, -3.457e-6
0.351, -3.448e-6
0.352, -3.434e-6
0.353, -3.424e-6
0.354, -3.414e-6
0.355, -3.399e-6
0.356, -3.393e-6
0.357, -3.380e-6
0.358, -3.369e-6
0.359, -3.362e-6
0.360, -3.350e-6
0.361, -3.340e-6
0.362, -3.331e-6
0.363, -3.320e-6
0.364, -3.313e-6
0.365, -3.302e-6
0.366, -3.293e-6
0.367, -3.286e-6
0.368, -3.274e-6
0.369, -3.265e-6
0.370, -3.259e-6
0.371, -3.247e-6
0.372, -3.242e-6
0.373, -3.232e-6
0.374, -3.223e-6
0.375, -3.217e-6
0.376, -3.208e-6
0.377, -3.199e-6
0.378, -3.194e-6
0.379, -3.184e-6
0.380, -3.179e-6
0.381, -3.169e-6
0.382, -3.163e-6
0.383, -3.157e-6
0.384, -3.146e-6
0.385, -3.141e-6
0.386, -3.137e-6
0.387, -3.126e-6
0.388, -3.123e-6
0.389, -3.115e-6
0.390, -3.108e-6
0.391, -3.104e-6
0.392, -3.096e-6
0.393, -3.088e-6
0.394, -3.085e-6
0.395, -3.076e-6
0.396, -3.073e-6
0.397, -3.064e-6
0.398, -3.060e-6
0.399, -3.056e-6
0.400, -3.046e-6
0.401, -3.042e-6
0.402, -3.040e-6
0.403, -3.031e-6
0.404, -3.029e-6
0.405, -3.022e-6
0.406, -3.015e-6
0.407, -3.014e-6
0.408, -3.006e-6
0.409, -3.004e-6
0.410, -3.001e-6
0.411, -2.993e-6
0.412, -2.990e-6
0.413, -2.983e-6
0.414, -2.980e-6
0.415, -2.976e-6
0.416, -2.970e-6
0.417, -2.966e-6
0.418, -2.964e-6
0.419, -2.956e-6
0.420, -2.954e-6
0.421, -2.949e-6
0.422, -2.943e-6
0.423, -2.943e-6
0.424, -2.938e-6
0.425, -2.933e-6
0.426, -2.931e-6
0.427, -2.925e-6
0.428, -2.924e-6
0.429, -2.919e-6
0.430, -2.915e-6
0.431, -2.914e-6
0.432, -2.908e-6
0.433, -2.904e-6
0.434, -2.904e-6
0.435, -2.896e-6
0.436, -2.897e-6
0.437, -2.893e-6
0.438, -2.888e-6
0.439, -2.889e-6
0.440, -2.883e-6
0.441, -2.881e-6
0.442, -2.880e-6
0.443, -2.875e-6
0.444, -2.875e-6
0.445, -2.870e-6
0.446, -2.867e-6
0.447, -2.868e-6
0.448, -2.862e-6
0.449, -2.861e-6
0.450, -2.860e-6
0.451, -2.856e-6
0.452, -2.855e-6
0.453, -2.853e-6
0.454, -2.850e-6
0.455, -2.851e-6
0.456, -2.846e-6
0.457, -2.844e-6
0.458, -2.845e-6
0.459, -2.840e-6
0.460, -2.841e-6
0.461, -2.838e-6
0.462, -2.837e-6
0.463, -2.838e-6
0.464, -2.833e-6
0.465, -2.833e-6
0.466, -2.834e-6
0.467, -2.830e-6
0.468, -2.832e-6
0.469, -2.829e-6
0.470, -2.827e-6
0.471, -2.829e-6
0.472, -2.826e-6
0.473, -2.825e-6
0.474, -2.826e-6
0.475, -2.824e-6
0.476, -2.826e-6
0.477, -2.823e-6
0.478, -2.822e-6
0.479, -2.825e-6
0.480, -2.821e-6
0.481, -2.823e-6
0.482, -2.824e-6
0.483, -2.820e-6
0.484, -2.824e-6
0.485, -2.822e-6
0.486, -2.820e-6
0.487, -2.824e-6
0.488, -2.823e-6
0.489, -2.823e-6
0.490, -2.826e-6
0.491, -2.824e-6
0.492, -2.827e-6
0.493, -2.825e-6
0.494, -2.827e-6
0.495, -2.829e-6
0.496, -2.826e-6
0.497, -2.829e-6
0.498, -2.832e-6
0.499, -2.828e-6
