Apr. 7, 2019   11:32:59
Cyclic Voltammetry
File: D:\process\data\cv2.bin.txt
Data Source:  Experiment
Instrument Model:  CHI900D
Header: 
Note: 

Init E (V) = 0.5
High E (V) = 0.5
Low E (V) = -0.1
Init P/N = N
Scan Rate (V/s) = 10
Segment = 2
Sample Interval (V) = 0.001
Quiet Time (sec) = 2
Sensitivity (A/V) = 1e-5

Segment 1:
Segment 2:

Potential/V, Current/A

0.500, -6.049e-7
0.499, 4.363e-6
0.498, 6.508e-6
0.497, 6.917e-6
0.496, 7.239e-6
0.495, 7.396e-6
0.494, 7.651e-6
0.493, 7.814e-6
0.492, 7.869e-6
0.491, 8.057e-6
0.490, 8.201e-6
0.489, 8.207e-6
0.488, 8.330e-6
0.487, 8.475e-6
0.486, 8.542e-6
0.485, 8.557e-6
0.484, 8.668e-6
0.483, 8.779e-6
0.482, 8.822e-6
0.481, 8.880e-6
0.480, 9.046e-6
0.479, 9.025e-6
0.478, 9.126e-6
0.477, 9.120e-6
0.476, 9.083e-6
0.475, 9.661e-6
0.474, 9.442e-6
0.473, 9.332e-6
0.472, 9.458e-6
0.471, 9.479e-6
0.470, 9.590e-6
0.469, 9.673e-6
0.468, 9.697e-6
0.467, 9.805e-6
0.466, 9.793e-6
0.465, 9.903e-6
0.464, 9.962e-6
0.463, 9.925e-6
0.462, 1.007e-5
0.461, 1.021e-5
0.460, 1.005e-5
0.459, 1.013e-5
0.458, 1.027e-5
0.457, 1.021e-5
0.456, 1.035e-5
0.455, 1.036e-5
0.454, 1.035e-5
0.453, 1.046e-5
0.452, 1.048e-5
0.451, 1.066e-5
0.450, 1.080e-5
0.449, 1.056e-5
0.448, 1.065e-5
0.447, 1.067e-5
0.446, 1.071e-5
0.445, 1.085e-5
0.444, 1.081e-5
0.443, 1.089e-5
0.442, 1.095e-5
0.441, 1.098e-5
0.440, 1.104e-5
0.439, 1.106e-5
0.438, 1.111e-5
0.437, 1.114e-5
0.436, 1.122e-5
0.435, 1.131e-5
0.434, 1.122e-5
0.433, 1.123e-5
0.432, 1.140e-5
0.431, 1.135e-5
0.430, 1.147e-5
0.429, 1.139e-5
0.428, 1.130e-5
0.427, 1.197e-5
0.426, 1.154e-5
0.425, 1.153e-5
0.424, 1.160e-5
0.423, 1.168e-5
0.422, 1.173e-5
0.421, 1.177e-5
0.420, 1.182e-5
0.419, 1.189e-5
0.418, 1.188e-5
0.417, 1.191e-5
0.416, 1.207e-5
0.415, 1.201e-5
0.414, 1.207e-5
0.413, 1.218e-5
0.412, 1.211e-5
0.411, 1.220e-5
0.410, 1.224e-5
0.409, 1.232e-5
0.408, 1.237e-5
0.407, 1.227e-5
0.406, 1.238e-5
0.405, 1.238e-5
0.404, 1.243e-5
0.403, 1.243e-5
0.402, 1.262e-5
0.401, 1.290e-5
0.400, 1.252e-5
0.399, 1.250e-5
0.398, 1.265e-5
0.397, 1.279e-5
0.396, 1.266e-5
0.395, 1.274e-5
0.394, 1.287e-5
0.393, 1.284e-5
0.392, 1.300e-5
0.391, 1.292e-5
0.390, 1.295e-5
0.389, 1.305e-5
0.388, 1.303e-5
0.387, 1.315e-5
0.386, 1.313e-5
0.385, 1.316e-5
0.384, 1.337e-5
0.383, 1.316e-5
0.382, 1.326e-5
0.381, 1.334e-5
0.380, 1.332e-5
0.379, 1.316e-5
0.378, 1.385e-5
0.377, 1.342e-5
0.376, 1.352e-5
0.375, 1.366e-5
0.374, 1.359e-5
0.373, 1.367e-5
0.372, 1.363e-5
0.371, 1.378e-5
0.370, 1.371e-5
0.369, 1.383e-5
0.368, 1.392e-5
0.367, 1.390e-5
0.366, 1.394e-5
0.365, 1.403e-5
0.364, 1.404e-5
0.363, 1.408e-5
0.362, 1.416e-5
0.361, 1.410e-5
0.360, 1.428e-5
0.359, 1.428e-5
0.358, 1.433e-5
0.357, 1.433e-5
0.356, 1.434e-5
0.355, 1.444e-5
0.354, 1.418e-5
0.353, 1.477e-5
0.352, 1.462e-5
0.351, 1.467e-5
0.350, 1.462e-5
0.349, 1.473e-5
0.348, 1.469e-5
0.347, 1.481e-5
0.346, 1.493e-5
0.345, 1.487e-5
0.344, 1.493e-5
0.343, 1.502e-5
0.342, 1.508e-5
0.341, 1.516e-5
0.340, 1.518e-5
0.339, 1.529e-5
0.338, 1.534e-5
0.337, 1.533e-5
0.336, 1.541e-5
0.335, 1.545e-5
0.334, 1.554e-5
0.333, 1.564e-5
0.332, 1.556e-5
0.331, 1.544e-5
0.330, 1.613e-5
0.329, 1.577e-5
0.328, 1.584e-5
0.327, 1.605e-5
0.326, 1.605e-5
0.325, 1.605e-5
0.324, 1.609e-5
0.323, 1.628e-5
0.322, 1.628e-5
0.321, 1.641e-5
0.320, 1.656e-5
0.319, 1.645e-5
0.318, 1.663e-5
0.317, 1.674e-5
0.316, 1.671e-5
0.315, 1.692e-5
0.314, 1.700e-5
0.313, 1.705e-5
0.312, 1.715e-5
0.311, 1.723e-5
0.310, 1.735e-5
0.309, 1.746e-5
0.308, 1.752e-5
0.307, 1.778e-5
0.306, 1.765e-5
0.305, 1.762e-5
0.304, 1.831e-5
0.303, 1.796e-5
0.302, 1.807e-5
0.301, 1.845e-5
0.300, 1.835e-5
0.299, 1.852e-5
0.298, 1.867e-5
0.297, 1.876e-5
0.296, 1.898e-5
0.295, 1.903e-5
0.294, 1.927e-5
0.293, 1.934e-5
0.292, 1.952e-5
0.291, 1.968e-5
0.290, 1.982e-5
0.289, 2.002e-5
0.288, 2.021e-5
0.287, 2.033e-5
0.286, 2.050e-5
0.285, 2.066e-5
0.284, 2.083e-5
0.283, 2.106e-5
0.282, 2.118e-5
0.281, 2.165e-5
0.280, 2.177e-5
0.279, 2.172e-5
0.278, 2.199e-5
0.277, 2.220e-5
0.276, 2.241e-5
0.275, 2.293e-5
0.274, 2.299e-5
0.273, 2.324e-5
0.272, 2.351e-5
0.271, 2.370e-5
0.270, 2.402e-5
0.269, 2.433e-5
0.268, 2.449e-5
0.267, 2.483e-5
0.266, 2.514e-5
0.265, 2.538e-5
0.264, 2.575e-5
0.263, 2.598e-5
0.262, 2.641e-5
0.261, 2.672e-5
0.260, 2.698e-5
0.259, 2.735e-5
0.258, 2.765e-5
0.257, 2.781e-5
0.256, 2.893e-5
0.255, 2.871e-5
0.254, 2.907e-5
0.253, 2.948e-5
0.252, 2.974e-5
0.251, 3.040e-5
0.250, 3.071e-5
0.249, 3.108e-5
0.248, 3.152e-5
0.247, 3.192e-5
0.246, 3.240e-5
0.245, 3.278e-5
0.244, 3.322e-5
0.243, 3.374e-5
0.242, 3.409e-5
0.241, 3.456e-5
0.240, 3.512e-5
0.239, 3.543e-5
0.238, 3.604e-5
0.237, 3.651e-5
0.236, 3.691e-5
0.235, 3.740e-5
0.234, 3.782e-5
0.233, 3.864e-5
0.232, 3.900e-5
0.231, 3.936e-5
0.230, 3.993e-5
0.229, 4.026e-5
0.228, 4.069e-5
0.227, 4.144e-5
0.226, 4.195e-5
0.225, 4.236e-5
0.224, 4.290e-5
0.223, 4.334e-5
0.222, 4.383e-5
0.221, 4.442e-5
0.220, 4.480e-5
0.219, 4.539e-5
0.218, 4.592e-5
0.217, 4.628e-5
0.216, 4.677e-5
0.215, 4.723e-5
0.214, 4.776e-5
0.213, 4.819e-5
0.212, 4.861e-5
0.211, 4.918e-5
0.210, 4.952e-5
0.209, 4.996e-5
0.208, 5.018e-5
0.207, 5.110e-5
0.206, 5.131e-5
0.205, 5.166e-5
0.204, 5.197e-5
0.203, 5.229e-5
0.202, 5.262e-5
0.201, 5.308e-5
0.200, 5.352e-5
0.199, 5.373e-5
0.198, 5.407e-5
0.197, 5.439e-5
0.196, 5.463e-5
0.195, 5.504e-5
0.194, 5.519e-5
0.193, 5.545e-5
0.192, 5.578e-5
0.191, 5.591e-5
0.190, 5.616e-5
0.189, 5.639e-5
0.188, 5.652e-5
0.187, 5.673e-5
0.186, 5.692e-5
0.185, 5.705e-5
0.184, 5.715e-5
0.183, 5.764e-5
0.182, 5.748e-5
0.181, 5.755e-5
0.180, 5.767e-5
0.179, 5.776e-5
0.178, 5.775e-5
0.177, 5.779e-5
0.176, 5.793e-5
0.175, 5.806e-5
0.174, 5.801e-5
0.173, 5.804e-5
0.172, 5.808e-5
0.171, 5.806e-5
0.170, 5.811e-5
0.169, 5.806e-5
0.168, 5.803e-5
0.167, 5.804e-5
0.166, 5.803e-5
0.165, 5.785e-5
0.164, 5.787e-5
0.163, 5.784e-5
0.162, 5.776e-5
0.161, 5.765e-5
0.160, 5.768e-5
0.159, 5.741e-5
0.158, 5.774e-5
0.157, 5.734e-5
0.156, 5.721e-5
0.155, 5.713e-5
0.154, 5.708e-5
0.153, 5.693e-5
0.152, 5.677e-5
0.151, 5.686e-5
0.150, 5.665e-5
0.149, 5.645e-5
0.148, 5.638e-5
0.147, 5.632e-5
0.146, 5.615e-5
0.145, 5.602e-5
0.144, 5.591e-5
0.143, 5.575e-5
0.142, 5.570e-5
0.141, 5.556e-5
0.140, 5.535e-5
0.139, 5.524e-5
0.138, 5.513e-5
0.137, 5.499e-5
0.136, 5.464e-5
0.135, 5.509e-5
0.134, 5.465e-5
0.133, 5.442e-5
0.132, 5.430e-5
0.131, 5.423e-5
0.130, 5.407e-5
0.129, 5.392e-5
0.128, 5.383e-5
0.127, 5.371e-5
0.126, 5.367e-5
0.125, 5.342e-5
0.124, 5.331e-5
0.123, 5.326e-5
0.122, 5.308e-5
0.121, 5.297e-5
0.120, 5.290e-5
0.119, 5.276e-5
0.118, 5.262e-5
0.117, 5.249e-5
0.116, 5.239e-5
0.115, 5.238e-5
0.114, 5.215e-5
0.113, 5.206e-5
0.112, 5.198e-5
0.111, 5.163e-5
0.110, 5.208e-5
0.109, 5.181e-5
0.108, 5.144e-5
0.107, 5.143e-5
0.106, 5.132e-5
0.105, 5.118e-5
0.104, 5.115e-5
0.103, 5.104e-5
0.102, 5.104e-5
0.101, 5.091e-5
0.100, 5.081e-5
0.099, 5.066e-5
0.098, 5.054e-5
0.097, 5.049e-5
0.096, 5.049e-5
0.095, 5.032e-5
0.094, 5.029e-5
0.093, 5.020e-5
0.092, 5.006e-5
0.091, 5.004e-5
0.090, 4.995e-5
0.089, 4.985e-5
0.088, 4.981e-5
0.087, 4.943e-5
0.086, 4.996e-5
0.085, 4.958e-5
0.084, 4.943e-5
0.083, 4.942e-5
0.082, 4.935e-5
0.081, 4.927e-5
0.080, 4.923e-5
0.079, 4.910e-5
0.078, 4.920e-5
0.077, 4.908e-5
0.076, 4.883e-5
0.075, 4.899e-5
0.074, 4.892e-5
0.073, 4.875e-5
0.072, 4.878e-5
0.071, 4.869e-5
0.070, 4.862e-5
0.069, 4.867e-5
0.068, 4.849e-5
0.067, 4.851e-5
0.066, 4.844e-5
0.065, 4.840e-5
0.064, 4.844e-5
0.063, 4.823e-5
0.062, 4.801e-5
0.061, 4.863e-5
0.060, 4.809e-5
0.059, 4.805e-5
0.058, 4.809e-5
0.057, 4.803e-5
0.056, 4.803e-5
0.055, 4.793e-5
0.054, 4.794e-5
0.053, 4.787e-5
0.052, 4.778e-5
0.051, 4.798e-5
0.050, 4.782e-5
0.049, 4.772e-5
0.048, 4.773e-5
0.047, 4.762e-5
0.046, 4.767e-5
0.045, 4.767e-5
0.044, 4.757e-5
0.043, 4.759e-5
0.042, 4.759e-5
0.041, 4.744e-5
0.040, 4.755e-5
0.039, 4.725e-5
0.038, 4.776e-5
0.037, 4.736e-5
0.036, 4.731e-5
0.035, 4.731e-5
0.034, 4.731e-5
0.033, 4.731e-5
0.032, 4.736e-5
0.031, 4.722e-5
0.030, 4.728e-5
0.029, 4.727e-5
0.028, 4.714e-5
0.027, 4.719e-5
0.026, 4.735e-5
0.025, 4.712e-5
0.024, 4.712e-5
0.023, 4.714e-5
0.022, 4.712e-5
0.021, 4.708e-5
0.020, 4.715e-5
0.019, 4.716e-5
0.018, 4.708e-5
0.017, 4.705e-5
0.016, 4.712e-5
0.015, 4.704e-5
0.014, 4.708e-5
0.013, 4.690e-5
0.012, 4.731e-5
0.011, 4.707e-5
0.010, 4.694e-5
0.009, 4.696e-5
0.008, 4.706e-5
0.007, 4.702e-5
0.006, 4.704e-5
0.005, 4.701e-5
0.004, 4.701e-5
0.003, 4.699e-5
0.002, 4.695e-5
0.001, 4.707e-5
0.000, 4.729e-5
-0.001, 4.708e-5
-0.002, 4.698e-5
-0.003, 4.708e-5
-0.004, 4.698e-5
-0.005, 4.704e-5
-0.006, 4.708e-5
-0.007, 4.700e-5
-0.008, 4.712e-5
-0.009, 4.706e-5
-0.010, 4.684e-5
-0.011, 4.743e-5
-0.012, 4.716e-5
-0.013, 4.709e-5
-0.014, 4.702e-5
-0.015, 4.708e-5
-0.016, 4.715e-5
-0.017, 4.705e-5
-0.018, 4.710e-5
-0.019, 4.720e-5
-0.020, 4.716e-5
-0.021, 4.719e-5
-0.022, 4.717e-5
-0.023, 4.718e-5
-0.024, 4.721e-5
-0.025, 4.720e-5
-0.026, 4.740e-5
-0.027, 4.727e-5
-0.028, 4.723e-5
-0.029, 4.727e-5
-0.030, 4.733e-5
-0.031, 4.738e-5
-0.032, 4.739e-5
-0.033, 4.734e-5
-0.034, 4.744e-5
-0.035, 4.723e-5
-0.036, 4.776e-5
-0.037, 4.751e-5
-0.038, 4.746e-5
-0.039, 4.739e-5
-0.040, 4.755e-5
-0.041, 4.750e-5
-0.042, 4.757e-5
-0.043, 4.763e-5
-0.044, 4.764e-5
-0.045, 4.768e-5
-0.046, 4.767e-5
-0.047, 4.771e-5
-0.048, 4.771e-5
-0.049, 4.776e-5
-0.050, 4.794e-5
-0.051, 4.794e-5
-0.052, 4.773e-5
-0.053, 4.790e-5
-0.054, 4.796e-5
-0.055, 4.790e-5
-0.056, 4.805e-5
-0.057, 4.802e-5
-0.058, 4.795e-5
-0.059, 4.831e-5
-0.060, 4.823e-5
-0.061, 4.819e-5
-0.062, 4.811e-5
-0.063, 4.821e-5
-0.064, 4.839e-5
-0.065, 4.828e-5
-0.066, 4.836e-5
-0.067, 4.843e-5
-0.068, 4.837e-5
-0.069, 4.851e-5
-0.070, 4.856e-5
-0.071, 4.852e-5
-0.072, 4.863e-5
-0.073, 4.858e-5
-0.074, 4.884e-5
-0.075, 4.881e-5
-0.076, 4.876e-5
-0.077, 4.891e-5
-0.078, 4.878e-5
-0.079, 4.890e-5
-0.080, 4.905e-5
-0.081, 4.895e-5
-0.082, 4.908e-5
-0.083, 4.919e-5
-0.084, 4.896e-5
-0.085, 4.957e-5
-0.086, 4.929e-5
-0.087, 4.928e-5
-0.088, 4.941e-5
-0.089, 4.941e-5
-0.090, 4.949e-5
-0.091, 4.958e-5
-0.092, 4.961e-5
-0.093, 4.964e-5
-0.094, 4.971e-5
-0.095, 4.983e-5
-0.096, 4.990e-5
-0.097, 4.990e-5
-0.098, 4.995e-5
-0.099, 5.002e-5
-0.100, 4.948e-5
-0.099, 4.072e-5
-0.098, 3.519e-5
-0.097, 3.335e-5
-0.096, 3.221e-5
-0.095, 3.144e-5
-0.094, 3.070e-5
-0.093, 2.990e-5
-0.092, 2.958e-5
-0.091, 2.896e-5
-0.090, 2.818e-5
-0.089, 2.770e-5
-0.088, 2.727e-5
-0.087, 2.677e-5
-0.086, 2.638e-5
-0.085, 2.594e-5
-0.084, 2.555e-5
-0.083, 2.509e-5
-0.082, 2.477e-5
-0.081, 2.441e-5
-0.080, 2.402e-5
-0.079, 2.375e-5
-0.078, 2.339e-5
-0.077, 2.299e-5
-0.076, 2.273e-5
-0.075, 2.247e-5
-0.074, 2.233e-5
-0.073, 2.191e-5
-0.072, 2.159e-5
-0.071, 2.130e-5
-0.070, 2.106e-5
-0.069, 2.079e-5
-0.068, 2.048e-5
-0.067, 2.043e-5
-0.066, 2.031e-5
-0.065, 1.980e-5
-0.064, 1.952e-5
-0.063, 1.938e-5
-0.062, 1.915e-5
-0.061, 1.889e-5
-0.060, 1.877e-5
-0.059, 1.848e-5
-0.058, 1.834e-5
-0.057, 1.813e-5
-0.056, 1.790e-5
-0.055, 1.773e-5
-0.054, 1.753e-5
-0.053, 1.733e-5
-0.052, 1.715e-5
-0.051, 1.688e-5
-0.050, 1.700e-5
-0.049, 1.667e-5
-0.048, 1.640e-5
-0.047, 1.630e-5
-0.046, 1.617e-5
-0.045, 1.592e-5
-0.044, 1.577e-5
-0.043, 1.587e-5
-0.042, 1.544e-5
-0.041, 1.530e-5
-0.040, 1.513e-5
-0.039, 1.504e-5
-0.038, 1.490e-5
-0.037, 1.471e-5
-0.036, 1.464e-5
-0.035, 1.442e-5
-0.034, 1.433e-5
-0.033, 1.418e-5
-0.032, 1.402e-5
-0.031, 1.387e-5
-0.030, 1.377e-5
-0.029, 1.361e-5
-0.028, 1.350e-5
-0.027, 1.328e-5
-0.026, 1.334e-5
-0.025, 1.321e-5
-0.024, 1.299e-5
-0.023, 1.287e-5
-0.022, 1.276e-5
-0.021, 1.263e-5
-0.020, 1.254e-5
-0.019, 1.224e-5
-0.018, 1.256e-5
-0.017, 1.228e-5
-0.016, 1.196e-5
-0.015, 1.191e-5
-0.014, 1.183e-5
-0.013, 1.161e-5
-0.012, 1.172e-5
-0.011, 1.147e-5
-0.010, 1.138e-5
-0.009, 1.132e-5
-0.008, 1.116e-5
-0.007, 1.106e-5
-0.006, 1.093e-5
-0.005, 1.083e-5
-0.004, 1.079e-5
-0.003, 1.062e-5
-0.002, 1.057e-5
-0.001, 1.038e-5
-0.000, 1.033e-5
0.001, 1.027e-5
0.002, 1.008e-5
0.003, 9.986e-6
0.004, 9.956e-6
0.005, 9.673e-6
0.006, 1.003e-5
0.007, 9.651e-6
0.008, 9.485e-6
0.009, 9.415e-6
0.010, 9.384e-6
0.011, 9.246e-6
0.012, 9.194e-6
0.013, 9.068e-6
0.014, 9.064e-6
0.015, 8.948e-6
0.016, 8.819e-6
0.017, 8.773e-6
0.018, 8.690e-6
0.019, 8.524e-6
0.020, 8.471e-6
0.021, 8.364e-6
0.022, 8.272e-6
0.023, 8.253e-6
0.024, 8.038e-6
0.025, 8.026e-6
0.026, 8.109e-6
0.027, 7.875e-6
0.028, 7.811e-6
0.029, 7.633e-6
0.030, 7.504e-6
0.031, 7.839e-6
0.032, 7.344e-6
0.033, 7.307e-6
0.034, 7.246e-6
0.035, 7.126e-6
0.036, 7.098e-6
0.037, 7.033e-6
0.038, 6.944e-6
0.039, 6.904e-6
0.040, 6.763e-6
0.041, 6.696e-6
0.042, 6.640e-6
0.043, 6.545e-6
0.044, 6.474e-6
0.045, 6.272e-6
0.046, 6.253e-6
0.047, 6.185e-6
0.048, 6.032e-6
0.049, 6.053e-6
0.050, 6.106e-6
0.051, 5.765e-6
0.052, 5.866e-6
0.053, 5.439e-6
0.054, 5.906e-6
0.055, 5.553e-6
0.056, 5.377e-6
0.057, 5.307e-6
0.058, 5.254e-6
0.059, 5.190e-6
0.060, 5.132e-6
0.061, 5.027e-6
0.062, 4.938e-6
0.063, 4.886e-6
0.064, 4.726e-6
0.065, 4.741e-6
0.066, 4.606e-6
0.067, 4.477e-6
0.068, 4.496e-6
0.069, 4.363e-6
0.070, 4.198e-6
0.071, 4.210e-6
0.072, 4.047e-6
0.073, 3.887e-6
0.074, 4.001e-6
0.075, 3.903e-6
0.076, 3.700e-6
0.077, 3.577e-6
0.078, 3.571e-6
0.079, 3.466e-6
0.080, 3.617e-6
0.081, 3.267e-6
0.082, 3.113e-6
0.083, 3.005e-6
0.084, 3.030e-6
0.085, 2.861e-6
0.086, 2.778e-6
0.087, 2.738e-6
0.088, 2.624e-6
0.089, 2.529e-6
0.090, 2.406e-6
0.091, 2.354e-6
0.092, 2.256e-6
0.093, 2.087e-6
0.094, 2.038e-6
0.095, 1.915e-6
0.096, 1.730e-6
0.097, 1.718e-6
0.098, 1.531e-6
0.099, 1.401e-6
0.100, 1.543e-6
0.101, 1.349e-6
0.102, 8.576e-7
0.103, 1.414e-6
0.104, 1.005e-6
0.105, 7.255e-7
0.106, 6.733e-7
0.107, 5.412e-7
0.108, 4.736e-7
0.109, 2.585e-7
0.110, 2.493e-7
0.111, 7.413e-8
0.112, -4.877e-8
0.113, -1.625e-7
0.114, -2.423e-7
0.115, -5.066e-7
0.116, -4.882e-7
0.117, -6.940e-7
0.118, -8.968e-7
0.119, -9.367e-7
0.120, -1.106e-6
0.121, -1.247e-6
0.122, -1.462e-6
0.123, -1.573e-6
0.124, -1.726e-6
0.125, -1.972e-6
0.126, -1.886e-6
0.127, -2.344e-6
0.128, -2.024e-6
0.129, -2.412e-6
0.130, -2.737e-6
0.131, -2.943e-6
0.132, -3.008e-6
0.133, -3.238e-6
0.134, -3.376e-6
0.135, -3.582e-6
0.136, -3.733e-6
0.137, -3.966e-6
0.138, -4.095e-6
0.139, -4.326e-6
0.140, -4.495e-6
0.141, -4.827e-6
0.142, -4.928e-6
0.143, -5.137e-6
0.144, -5.441e-6
0.145, -5.613e-6
0.146, -5.819e-6
0.147, -6.154e-6
0.148, -6.311e-6
0.149, -6.670e-6
0.150, -7.011e-6
0.151, -6.590e-6
0.152, -7.288e-6
0.153, -7.699e-6
0.154, -7.927e-6
0.155, -8.170e-6
0.156, -8.425e-6
0.157, -8.784e-6
0.158, -8.975e-6
0.159, -9.303e-6
0.160, -9.669e-6
0.161, -9.918e-6
0.162, -1.026e-5
0.163, -1.061e-5
0.164, -1.085e-5
0.165, -1.126e-5
0.166, -1.161e-5
0.167, -1.191e-5
0.168, -1.231e-5
0.169, -1.267e-5
0.170, -1.305e-5
0.171, -1.343e-5
0.172, -1.376e-5
0.173, -1.437e-5
0.174, -1.458e-5
0.175, -1.489e-5
0.176, -1.571e-5
0.177, -1.546e-5
0.178, -1.620e-5
0.179, -1.681e-5
0.180, -1.708e-5
0.181, -1.758e-5
0.182, -1.802e-5
0.183, -1.842e-5
0.184, -1.895e-5
0.185, -1.937e-5
0.186, -1.985e-5
0.187, -2.034e-5
0.188, -2.076e-5
0.189, -2.131e-5
0.190, -2.177e-5
0.191, -2.221e-5
0.192, -2.277e-5
0.193, -2.318e-5
0.194, -2.372e-5
0.195, -2.429e-5
0.196, -2.474e-5
0.197, -2.526e-5
0.198, -2.572e-5
0.199, -2.634e-5
0.200, -2.670e-5
0.201, -2.688e-5
0.202, -2.773e-5
0.203, -2.830e-5
0.204, -2.872e-5
0.205, -2.936e-5
0.206, -2.972e-5
0.207, -3.026e-5
0.208, -3.074e-5
0.209, -3.114e-5
0.210, -3.168e-5
0.211, -3.216e-5
0.212, -3.255e-5
0.213, -3.308e-5
0.214, -3.354e-5
0.215, -3.389e-5
0.216, -3.437e-5
0.217, -3.479e-5
0.218, -3.519e-5
0.219, -3.563e-5
0.220, -3.602e-5
0.221, -3.642e-5
0.222, -3.682e-5
0.223, -3.715e-5
0.224, -3.777e-5
0.225, -3.766e-5
0.226, -3.784e-5
0.227, -3.847e-5
0.228, -3.881e-5
0.229, -3.911e-5
0.230, -3.942e-5
0.231, -3.959e-5
0.232, -3.986e-5
0.233, -4.015e-5
0.234, -4.033e-5
0.235, -4.059e-5
0.236, -4.071e-5
0.237, -4.098e-5
0.238, -4.112e-5
0.239, -4.129e-5
0.240, -4.145e-5
0.241, -4.153e-5
0.242, -4.167e-5
0.243, -4.186e-5
0.244, -4.185e-5
0.245, -4.202e-5
0.246, -4.206e-5
0.247, -4.218e-5
0.248, -4.204e-5
0.249, -4.207e-5
0.250, -4.226e-5
0.251, -4.219e-5
0.252, -4.232e-5
0.253, -4.232e-5
0.254, -4.224e-5
0.255, -4.218e-5
0.256, -4.225e-5
0.257, -4.206e-5
0.258, -4.210e-5
0.259, -4.208e-5
0.260, -4.188e-5
0.261, -4.192e-5
0.262, -4.184e-5
0.263, -4.169e-5
0.264, -4.165e-5
0.265, -4.155e-5
0.266, -4.141e-5
0.267, -4.129e-5
0.268, -4.124e-5
0.269, -4.112e-5
0.270, -4.096e-5
0.271, -4.081e-5
0.272, -4.074e-5
0.273, -4.088e-5
0.274, -4.004e-5
0.275, -4.012e-5
0.276, -4.022e-5
0.277, -4.012e-5
0.278, -3.991e-5
0.279, -3.968e-5
0.280, -3.955e-5
0.281, -3.945e-5
0.282, -3.922e-5
0.283, -3.905e-5
0.284, -3.892e-5
0.285, -3.880e-5
0.286, -3.862e-5
0.287, -3.845e-5
0.288, -3.829e-5
0.289, -3.815e-5
0.290, -3.797e-5
0.291, -3.788e-5
0.292, -3.765e-5
0.293, -3.748e-5
0.294, -3.740e-5
0.295, -3.717e-5
0.296, -3.707e-5
0.297, -3.709e-5
0.298, -3.643e-5
0.299, -3.670e-5
0.300, -3.652e-5
0.301, -3.629e-5
0.302, -3.615e-5
0.303, -3.601e-5
0.304, -3.590e-5
0.305, -3.570e-5
0.306, -3.556e-5
0.307, -3.554e-5
0.308, -3.524e-5
0.309, -3.513e-5
0.310, -3.505e-5
0.311, -3.485e-5
0.312, -3.474e-5
0.313, -3.461e-5
0.314, -3.451e-5
0.315, -3.439e-5
0.316, -3.419e-5
0.317, -3.416e-5
0.318, -3.398e-5
0.319, -3.387e-5
0.320, -3.380e-5
0.321, -3.361e-5
0.322, -3.348e-5
0.323, -3.322e-5
0.324, -3.335e-5
0.325, -3.327e-5
0.326, -3.313e-5
0.327, -3.280e-5
0.328, -3.285e-5
0.329, -3.278e-5
0.330, -3.261e-5
0.331, -3.252e-5
0.332, -3.244e-5
0.333, -3.236e-5
0.334, -3.218e-5
0.335, -3.212e-5
0.336, -3.206e-5
0.337, -3.193e-5
0.338, -3.183e-5
0.339, -3.183e-5
0.340, -3.163e-5
0.341, -3.163e-5
0.342, -3.152e-5
0.343, -3.140e-5
0.344, -3.134e-5
0.345, -3.140e-5
0.346, -3.088e-5
0.347, -3.115e-5
0.348, -3.108e-5
0.349, -3.103e-5
0.350, -3.089e-5
0.351, -3.066e-5
0.352, -3.077e-5
0.353, -3.069e-5
0.354, -3.057e-5
0.355, -3.052e-5
0.356, -3.035e-5
0.357, -3.033e-5
0.358, -3.038e-5
0.359, -3.018e-5
0.360, -3.014e-5
0.361, -3.014e-5
0.362, -3.001e-5
0.363, -3.000e-5
0.364, -2.989e-5
0.365, -2.992e-5
0.366, -2.976e-5
0.367, -2.974e-5
0.368, -2.973e-5
0.369, -2.961e-5
0.370, -2.965e-5
0.371, -2.942e-5
0.372, -2.925e-5
0.373, -2.951e-5
0.374, -2.952e-5
0.375, -2.921e-5
0.376, -2.925e-5
0.377, -2.926e-5
0.378, -2.921e-5
0.379, -2.915e-5
0.380, -2.905e-5
0.381, -2.905e-5
0.382, -2.896e-5
0.383, -2.891e-5
0.384, -2.894e-5
0.385, -2.876e-5
0.386, -2.882e-5
0.387, -2.882e-5
0.388, -2.868e-5
0.389, -2.871e-5
0.390, -2.869e-5
0.391, -2.858e-5
0.392, -2.858e-5
0.393, -2.858e-5
0.394, -2.876e-5
0.395, -2.809e-5
0.396, -2.835e-5
0.397, -2.851e-5
0.398, -2.844e-5
0.399, -2.839e-5
0.400, -2.833e-5
0.401, -2.815e-5
0.402, -2.821e-5
0.403, -2.825e-5
0.404, -2.817e-5
0.405, -2.811e-5
0.406, -2.816e-5
0.407, -2.805e-5
0.408, -2.806e-5
0.409, -2.805e-5
0.410, -2.813e-5
0.411, -2.805e-5
0.412, -2.797e-5
0.413, -2.795e-5
0.414, -2.789e-5
0.415, -2.791e-5
0.416, -2.795e-5
0.417, -2.782e-5
0.418, -2.786e-5
0.419, -2.812e-5
0.420, -2.740e-5
0.421, -2.776e-5
0.422, -2.785e-5
0.423, -2.774e-5
0.424, -2.778e-5
0.425, -2.777e-5
0.426, -2.765e-5
0.427, -2.748e-5
0.428, -2.765e-5
0.429, -2.767e-5
0.430, -2.759e-5
0.431, -2.758e-5
0.432, -2.759e-5
0.433, -2.753e-5
0.434, -2.755e-5
0.435, -2.760e-5
0.436, -2.742e-5
0.437, -2.756e-5
0.438, -2.751e-5
0.439, -2.745e-5
0.440, -2.746e-5
0.441, -2.748e-5
0.442, -2.770e-5
0.443, -2.714e-5
0.444, -2.739e-5
0.445, -2.752e-5
0.446, -2.749e-5
0.447, -2.744e-5
0.448, -2.744e-5
0.449, -2.740e-5
0.450, -2.748e-5
0.451, -2.726e-5
0.452, -2.731e-5
0.453, -2.742e-5
0.454, -2.741e-5
0.455, -2.738e-5
0.456, -2.737e-5
0.457, -2.735e-5
0.458, -2.731e-5
0.459, -2.734e-5
0.460, -2.732e-5
0.461, -2.746e-5
0.462, -2.729e-5
0.463, -2.734e-5
0.464, -2.737e-5
0.465, -2.735e-5
0.466, -2.734e-5
0.467, -2.749e-5
0.468, -2.722e-5
0.469, -2.721e-5
0.470, -2.744e-5
0.471, -2.740e-5
0.472, -2.741e-5
0.473, -2.740e-5
0.474, -2.751e-5
0.475, -2.726e-5
0.476, -2.734e-5
0.477, -2.750e-5
0.478, -2.736e-5
0.479, -2.735e-5
0.480, -2.750e-5
0.481, -2.743e-5
0.482, -2.743e-5
0.483, -2.750e-5
0.484, -2.741e-5
0.485, -2.744e-5
0.486, -2.754e-5
0.487, -2.737e-5
0.488, -2.744e-5
0.489, -2.754e-5
0.490, -2.755e-5
0.491, -2.767e-5
0.492, -2.725e-5
0.493, -2.746e-5
0.494, -2.762e-5
0.495, -2.767e-5
0.496, -2.764e-5
0.497, -2.761e-5
0.498, -2.761e-5
0.499, -2.771e-5
