Apr. 7, 2019   11:33:03
Cyclic Voltammetry
File: D:\process\data\cv3.bin.txt
Data Source:  Experiment
Instrument Model:  CHI900D
Header: 
Note: 

Init E (V) = 0.5
High E (V) = 0.5
Low E (V) = -0.1
Init P/N = N
Scan Rate (V/s) = 100
Segment = 2
Sample Interval (V) = 0.001
Quiet Time (sec) = 2
Sensitivity (A/V) = 1e-4

Segment 1:
Segment 2:

Potential/V, Current/A

0.500, -1.072e-6
0.499, 1.817e-6
0.498, 1.715e-5
0.497, 3.153e-5
0.496, 4.210e-5
0.495, 5.009e-5
0.494, 5.519e-5
0.493, 5.887e-5
0.492, 6.302e-5
0.491, 6.330e-5
0.490, 6.542e-5
0.489, 6.748e-5
0.488, 6.739e-5
0.487, 6.874e-5
0.486, 6.997e-5
0.485, 7.046e-5
0.484, 7.052e-5
0.483, 6.990e-5
0.482, 7.156e-5
0.481, 7.221e-5
0.480, 7.190e-5
0.479, 7.298e-5
0.478, 7.289e-5
0.477, 7.301e-5
0.476, 7.442e-5
0.475, 7.307e-5
0.474, 7.405e-5
0.473, 7.651e-5
0.472, 7.497e-5
0.471, 7.448e-5
0.470, 7.507e-5
0.469, 7.556e-5
0.468, 7.654e-5
0.467, 7.547e-5
0.466, 7.630e-5
0.465, 7.663e-5
0.464, 7.623e-5
0.463, 7.676e-5
0.462, 7.682e-5
0.461, 7.688e-5
0.460, 8.051e-5
0.459, 7.691e-5
0.458, 7.719e-5
0.457, 7.823e-5
0.456, 7.743e-5
0.455, 7.743e-5
0.454, 7.752e-5
0.453, 7.826e-5
0.452, 7.912e-5
0.451, 7.826e-5
0.450, 7.888e-5
0.449, 7.888e-5
0.448, 7.909e-5
0.447, 8.044e-5
0.446, 7.952e-5
0.445, 7.946e-5
0.444, 8.020e-5
0.443, 7.872e-5
0.442, 8.020e-5
0.441, 8.158e-5
0.440, 8.063e-5
0.439, 7.986e-5
0.438, 8.069e-5
0.437, 7.903e-5
0.436, 8.133e-5
0.435, 8.081e-5
0.434, 8.309e-5
0.433, 8.204e-5
0.432, 8.112e-5
0.431, 8.109e-5
0.430, 8.094e-5
0.429, 8.146e-5
0.428, 8.287e-5
0.427, 8.149e-5
0.426, 8.207e-5
0.425, 8.309e-5
0.424, 8.220e-5
0.423, 8.241e-5
0.422, 8.324e-5
0.421, 8.296e-5
0.420, 8.263e-5
0.419, 8.176e-5
0.418, 8.281e-5
0.417, 8.339e-5
0.416, 8.336e-5
0.415, 8.382e-5
0.414, 8.309e-5
0.413, 8.327e-5
0.412, 8.465e-5
0.411, 8.349e-5
0.410, 8.410e-5
0.409, 8.644e-5
0.408, 8.502e-5
0.407, 8.410e-5
0.406, 8.462e-5
0.405, 8.502e-5
0.404, 8.573e-5
0.403, 8.481e-5
0.402, 8.542e-5
0.401, 8.545e-5
0.400, 8.505e-5
0.399, 8.610e-5
0.398, 8.601e-5
0.397, 8.576e-5
0.396, 8.748e-5
0.395, 8.524e-5
0.394, 8.573e-5
0.393, 8.754e-5
0.392, 8.662e-5
0.391, 8.616e-5
0.390, 8.640e-5
0.389, 8.674e-5
0.388, 8.739e-5
0.387, 8.659e-5
0.386, 8.720e-5
0.385, 8.766e-5
0.384, 8.751e-5
0.383, 8.932e-5
0.382, 8.766e-5
0.381, 8.723e-5
0.380, 8.834e-5
0.379, 8.748e-5
0.378, 8.843e-5
0.377, 8.932e-5
0.376, 8.834e-5
0.375, 8.849e-5
0.374, 8.868e-5
0.373, 8.911e-5
0.372, 8.932e-5
0.371, 8.874e-5
0.370, 9.034e-5
0.369, 8.972e-5
0.368, 8.923e-5
0.367, 8.960e-5
0.366, 8.957e-5
0.365, 9.006e-5
0.364, 9.129e-5
0.363, 8.945e-5
0.362, 9.034e-5
0.361, 9.172e-5
0.360, 9.101e-5
0.359, 9.089e-5
0.358, 9.181e-5
0.357, 9.230e-5
0.356, 9.141e-5
0.355, 9.037e-5
0.354, 9.169e-5
0.353, 9.215e-5
0.352, 9.215e-5
0.351, 9.261e-5
0.350, 9.218e-5
0.349, 9.209e-5
0.348, 9.350e-5
0.347, 9.224e-5
0.346, 9.304e-5
0.345, 9.482e-5
0.344, 9.298e-5
0.343, 9.286e-5
0.342, 9.316e-5
0.341, 9.387e-5
0.340, 9.442e-5
0.339, 9.347e-5
0.338, 9.433e-5
0.337, 9.479e-5
0.336, 9.430e-5
0.335, 9.498e-5
0.334, 9.488e-5
0.333, 9.519e-5
0.332, 9.759e-5
0.331, 9.492e-5
0.330, 9.528e-5
0.329, 9.651e-5
0.328, 9.538e-5
0.327, 9.581e-5
0.326, 9.639e-5
0.325, 9.673e-5
0.324, 9.710e-5
0.323, 9.661e-5
0.322, 9.765e-5
0.321, 9.814e-5
0.320, 9.762e-5
0.319, 9.894e-5
0.318, 9.777e-5
0.317, 9.759e-5
0.316, 9.949e-5
0.315, 9.817e-5
0.314, 9.842e-5
0.313, 1.002e-4
0.312, 9.940e-5
0.311, 9.974e-5
0.310, 1.000e-4
0.309, 1.003e-4
0.308, 1.010e-4
0.307, 1.002e-4
0.306, 1.031e-4
0.305, 1.013e-4
0.304, 1.012e-4
0.303, 1.024e-4
0.302, 1.015e-4
0.301, 1.019e-4
0.300, 1.032e-4
0.299, 1.023e-4
0.298, 1.033e-4
0.297, 1.051e-4
0.296, 1.043e-4
0.295, 1.043e-4
0.294, 1.047e-4
0.293, 1.054e-4
0.292, 1.060e-4
0.291, 1.053e-4
0.290, 1.066e-4
0.289, 1.071e-4
0.288, 1.068e-4
0.287, 1.078e-4
0.286, 1.079e-4
0.285, 1.081e-4
0.284, 1.102e-4
0.283, 1.089e-4
0.282, 1.095e-4
0.281, 1.128e-4
0.280, 1.110e-4
0.279, 1.109e-4
0.278, 1.117e-4
0.277, 1.123e-4
0.276, 1.130e-4
0.275, 1.125e-4
0.274, 1.141e-4
0.273, 1.149e-4
0.272, 1.155e-4
0.271, 1.165e-4
0.270, 1.163e-4
0.269, 1.168e-4
0.268, 1.192e-4
0.267, 1.177e-4
0.266, 1.191e-4
0.265, 1.210e-4
0.264, 1.208e-4
0.263, 1.207e-4
0.262, 1.213e-4
0.261, 1.220e-4
0.260, 1.236e-4
0.259, 1.243e-4
0.258, 1.258e-4
0.257, 1.263e-4
0.256, 1.262e-4
0.255, 1.294e-4
0.254, 1.282e-4
0.253, 1.291e-4
0.252, 1.311e-4
0.251, 1.303e-4
0.250, 1.317e-4
0.249, 1.338e-4
0.248, 1.343e-4
0.247, 1.351e-4
0.246, 1.361e-4
0.245, 1.369e-4
0.244, 1.384e-4
0.243, 1.377e-4
0.242, 1.405e-4
0.241, 1.417e-4
0.240, 1.425e-4
0.239, 1.441e-4
0.238, 1.443e-4
0.237, 1.453e-4
0.236, 1.477e-4
0.235, 1.478e-4
0.234, 1.497e-4
0.233, 1.518e-4
0.232, 1.515e-4
0.231, 1.525e-4
0.230, 1.542e-4
0.229, 1.559e-4
0.228, 1.572e-4
0.227, 1.573e-4
0.226, 1.591e-4
0.225, 1.602e-4
0.224, 1.615e-4
0.223, 1.635e-4
0.222, 1.646e-4
0.221, 1.661e-4
0.220, 1.683e-4
0.219, 1.676e-4
0.218, 1.691e-4
0.217, 1.730e-4
0.216, 1.726e-4
0.215, 1.738e-4
0.214, 1.751e-4
0.213, 1.760e-4
0.212, 1.777e-4
0.211, 1.783e-4
0.210, 1.811e-4
0.209, 1.827e-4
0.208, 1.832e-4
0.207, 1.847e-4
0.206, 1.856e-4
0.205, 1.848e-4
0.204, 1.923e-4
0.203, 1.902e-4
0.202, 1.915e-4
0.201, 1.933e-4
0.200, 1.933e-4
0.199, 1.947e-4
0.198, 1.958e-4
0.197, 1.972e-4
0.196, 1.989e-4
0.195, 1.991e-4
0.194, 2.009e-4
0.193, 2.017e-4
0.192, 2.026e-4
0.191, 2.047e-4
0.190, 2.048e-4
0.189, 2.059e-4
0.188, 2.079e-4
0.187, 2.072e-4
0.186, 2.087e-4
0.185, 2.110e-4
0.184, 2.110e-4
0.183, 2.116e-4
0.182, 2.129e-4
0.181, 2.139e-4
0.180, 2.149e-4
0.179, 2.148e-4
0.178, 2.171e-4
0.177, 2.170e-4
0.176, 2.171e-4
0.175, 2.184e-4
0.174, 2.188e-4
0.173, 2.193e-4
0.172, 2.212e-4
0.171, 2.205e-4
0.170, 2.214e-4
0.169, 2.227e-4
0.168, 2.222e-4
0.167, 2.227e-4
0.166, 2.234e-4
0.165, 2.240e-4
0.164, 2.246e-4
0.163, 2.241e-4
0.162, 2.251e-4
0.161, 2.254e-4
0.160, 2.253e-4
0.159, 2.261e-4
0.158, 2.262e-4
0.157, 2.264e-4
0.156, 2.275e-4
0.155, 2.263e-4
0.154, 2.270e-4
0.153, 2.306e-4
0.152, 2.279e-4
0.151, 2.271e-4
0.150, 2.270e-4
0.149, 2.271e-4
0.148, 2.279e-4
0.147, 2.265e-4
0.146, 2.278e-4
0.145, 2.283e-4
0.144, 2.276e-4
0.143, 2.277e-4
0.142, 2.275e-4
0.141, 2.274e-4
0.140, 2.292e-4
0.139, 2.267e-4
0.138, 2.268e-4
0.137, 2.278e-4
0.136, 2.270e-4
0.135, 2.268e-4
0.134, 2.268e-4
0.133, 2.265e-4
0.132, 2.269e-4
0.131, 2.258e-4
0.130, 2.265e-4
0.129, 2.265e-4
0.128, 2.258e-4
0.127, 2.276e-4
0.126, 2.249e-4
0.125, 2.244e-4
0.124, 2.256e-4
0.123, 2.242e-4
0.122, 2.245e-4
0.121, 2.256e-4
0.120, 2.241e-4
0.119, 2.237e-4
0.118, 2.235e-4
0.117, 2.237e-4
0.116, 2.238e-4
0.115, 2.226e-4
0.114, 2.236e-4
0.113, 2.228e-4
0.112, 2.222e-4
0.111, 2.222e-4
0.110, 2.218e-4
0.109, 2.214e-4
0.108, 2.226e-4
0.107, 2.210e-4
0.106, 2.213e-4
0.105, 2.218e-4
0.104, 2.204e-4
0.103, 2.204e-4
0.102, 2.213e-4
0.101, 2.214e-4
0.100, 2.197e-4
0.099, 2.186e-4
0.098, 2.191e-4
0.097, 2.191e-4
0.096, 2.187e-4
0.095, 2.192e-4
0.094, 2.184e-4
0.093, 2.181e-4
0.092, 2.190e-4
0.091, 2.173e-4
0.090, 2.180e-4
0.089, 2.195e-4
0.088, 2.177e-4
0.087, 2.168e-4
0.086, 2.169e-4
0.085, 2.167e-4
0.084, 2.171e-4
0.083, 2.159e-4
0.082, 2.166e-4
0.081, 2.166e-4
0.080, 2.160e-4
0.079, 2.161e-4
0.078, 2.158e-4
0.077, 2.156e-4
0.076, 2.177e-4
0.075, 2.149e-4
0.074, 2.146e-4
0.073, 2.158e-4
0.072, 2.150e-4
0.071, 2.147e-4
0.070, 2.145e-4
0.069, 2.147e-4
0.068, 2.147e-4
0.067, 2.140e-4
0.066, 2.147e-4
0.065, 2.147e-4
0.064, 2.137e-4
0.063, 2.147e-4
0.062, 2.136e-4
0.061, 2.132e-4
0.060, 2.145e-4
0.059, 2.133e-4
0.058, 2.133e-4
0.057, 2.146e-4
0.056, 2.128e-4
0.055, 2.131e-4
0.054, 2.132e-4
0.053, 2.132e-4
0.052, 2.138e-4
0.051, 2.125e-4
0.050, 2.148e-4
0.049, 2.131e-4
0.048, 2.124e-4
0.047, 2.123e-4
0.046, 2.121e-4
0.045, 2.123e-4
0.044, 2.135e-4
0.043, 2.121e-4
0.042, 2.127e-4
0.041, 2.135e-4
0.040, 2.125e-4
0.039, 2.123e-4
0.038, 2.128e-4
0.037, 2.130e-4
0.036, 2.128e-4
0.035, 2.117e-4
0.034, 2.125e-4
0.033, 2.127e-4
0.032, 2.124e-4
0.031, 2.130e-4
0.030, 2.127e-4
0.029, 2.123e-4
0.028, 2.134e-4
0.027, 2.120e-4
0.026, 2.123e-4
0.025, 2.151e-4
0.024, 2.127e-4
0.023, 2.120e-4
0.022, 2.121e-4
0.021, 2.123e-4
0.020, 2.130e-4
0.019, 2.119e-4
0.018, 2.127e-4
0.017, 2.128e-4
0.016, 2.126e-4
0.015, 2.131e-4
0.014, 2.127e-4
0.013, 2.124e-4
0.012, 2.150e-4
0.011, 2.126e-4
0.010, 2.126e-4
0.009, 2.137e-4
0.008, 2.128e-4
0.007, 2.130e-4
0.006, 2.132e-4
0.005, 2.134e-4
0.004, 2.138e-4
0.003, 2.129e-4
0.002, 2.137e-4
0.001, 2.138e-4
0.000, 2.139e-4
-0.001, 2.152e-4
-0.002, 2.139e-4
-0.003, 2.135e-4
-0.004, 2.147e-4
-0.005, 2.136e-4
-0.006, 2.140e-4
-0.007, 2.151e-4
-0.008, 2.141e-4
-0.009, 2.140e-4
-0.010, 2.144e-4
-0.011, 2.142e-4
-0.012, 2.153e-4
-0.013, 2.142e-4
-0.014, 2.155e-4
-0.015, 2.151e-4
-0.016, 2.146e-4
-0.017, 2.153e-4
-0.018, 2.151e-4
-0.019, 2.152e-4
-0.020, 2.164e-4
-0.021, 2.149e-4
-0.022, 2.154e-4
-0.023, 2.168e-4
-0.024, 2.158e-4
-0.025, 2.159e-4
-0.026, 2.167e-4
-0.027, 2.167e-4
-0.028, 2.163e-4
-0.029, 2.154e-4
-0.030, 2.167e-4
-0.031, 2.169e-4
-0.032, 2.168e-4
-0.033, 2.172e-4
-0.034, 2.169e-4
-0.035, 2.171e-4
-0.036, 2.182e-4
-0.037, 2.174e-4
-0.038, 2.177e-4
-0.039, 2.198e-4
-0.040, 2.182e-4
-0.041, 2.174e-4
-0.042, 2.178e-4
-0.043, 2.183e-4
-0.044, 2.190e-4
-0.045, 2.183e-4
-0.046, 2.188e-4
-0.047, 2.195e-4
-0.048, 2.190e-4
-0.049, 2.198e-4
-0.050, 2.197e-4
-0.051, 2.196e-4
-0.052, 2.211e-4
-0.053, 2.204e-4
-0.054, 2.206e-4
-0.055, 2.218e-4
-0.056, 2.207e-4
-0.057, 2.207e-4
-0.058, 2.209e-4
-0.059, 2.212e-4
-0.060, 2.215e-4
-0.061, 2.209e-4
-0.062, 2.221e-4
-0.063, 2.222e-4
-0.064, 2.219e-4
-0.065, 2.232e-4
-0.066, 2.220e-4
-0.067, 2.219e-4
-0.068, 2.238e-4
-0.069, 2.224e-4
-0.070, 2.233e-4
-0.071, 2.245e-4
-0.072, 2.233e-4
-0.073, 2.234e-4
-0.074, 2.241e-4
-0.075, 2.243e-4
-0.076, 2.251e-4
-0.077, 2.244e-4
-0.078, 2.259e-4
-0.079, 2.251e-4
-0.080, 2.249e-4
-0.081, 2.257e-4
-0.082, 2.253e-4
-0.083, 2.255e-4
-0.084, 2.268e-4
-0.085, 2.259e-4
-0.086, 2.267e-4
-0.087, 2.278e-4
-0.088, 2.271e-4
-0.089, 2.273e-4
-0.090, 2.278e-4
-0.091, 2.284e-4
-0.092, 2.283e-4
-0.093, 2.273e-4
-0.094, 2.285e-4
-0.095, 2.289e-4
-0.096, 2.290e-4
-0.097, 2.298e-4
-0.098, 2.295e-4
-0.099, 2.296e-4
-0.100, 2.315e-4
-0.099, 2.205e-4
-0.098, 1.907e-4
-0.097, 1.615e-4
-0.096, 1.397e-4
-0.095, 1.232e-4
-0.094, 1.109e-4
-0.093, 1.022e-4
-0.092, 9.421e-5
-0.091, 8.822e-5
-0.090, 8.321e-5
-0.089, 7.706e-5
-0.088, 7.577e-5
-0.087, 7.224e-5
-0.086, 6.720e-5
-0.085, 6.613e-5
-0.084, 6.253e-5
-0.083, 5.915e-5
-0.082, 5.808e-5
-0.081, 5.540e-5
-0.080, 5.423e-5
-0.079, 5.125e-5
-0.078, 4.861e-5
-0.077, 4.791e-5
-0.076, 4.474e-5
-0.075, 4.437e-5
-0.074, 4.299e-5
-0.073, 4.029e-5
-0.072, 3.995e-5
-0.071, 3.810e-5
-0.070, 3.515e-5
-0.069, 3.580e-5
-0.068, 3.396e-5
-0.067, 3.184e-5
-0.066, 3.079e-5
-0.065, 2.972e-5
-0.064, 3.002e-5
-0.063, 2.735e-5
-0.062, 2.615e-5
-0.061, 2.621e-5
-0.060, 2.437e-5
-0.059, 2.332e-5
-0.058, 2.268e-5
-0.057, 2.065e-5
-0.056, 2.102e-5
-0.055, 1.985e-5
-0.054, 1.736e-5
-0.053, 1.792e-5
-0.052, 1.727e-5
-0.051, 1.352e-5
-0.050, 1.435e-5
-0.049, 1.444e-5
-0.048, 1.451e-5
-0.047, 1.306e-5
-0.046, 1.165e-5
-0.045, 1.205e-5
-0.044, 1.027e-5
-0.043, 9.590e-6
-0.042, 8.884e-6
-0.041, 7.532e-6
-0.040, 8.607e-6
-0.039, 7.286e-6
-0.038, 4.305e-6
-0.037, 6.118e-6
-0.036, 5.657e-6
-0.035, 4.121e-6
-0.034, 4.152e-6
-0.033, 3.292e-6
-0.032, 3.322e-6
-0.031, 1.817e-6
-0.030, 1.018e-6
-0.029, 1.663e-6
-0.028, 2.804e-7
-0.027, -2.684e-8
-0.026, -4.263e-7
-0.025, -3.407e-6
-0.024, -1.256e-6
-0.023, -1.840e-6
-0.022, -3.560e-6
-0.021, -2.454e-6
-0.020, -3.314e-6
-0.019, -4.820e-6
-0.018, -4.574e-6
-0.017, -5.097e-6
-0.016, -4.851e-6
-0.015, -5.895e-6
-0.014, -6.786e-6
-0.013, -6.602e-6
-0.012, -7.985e-6
-0.011, -7.678e-6
-0.010, -7.831e-6
-0.009, -9.275e-6
-0.008, -8.538e-6
-0.007, -9.275e-6
-0.006, -1.100e-5
-0.005, -9.705e-6
-0.004, -1.050e-5
-0.003, -1.167e-5
-0.002, -1.136e-5
-0.001, -1.207e-5
-0.000, -1.140e-5
0.001, -1.321e-5
0.002, -1.385e-5
0.003, -1.321e-5
0.004, -1.391e-5
0.005, -1.410e-5
0.006, -1.438e-5
0.007, -1.548e-5
0.008, -1.450e-5
0.009, -1.548e-5
0.010, -1.733e-5
0.011, -1.585e-5
0.012, -1.616e-5
0.013, -1.788e-5
0.014, -1.733e-5
0.015, -1.760e-5
0.016, -1.705e-5
0.017, -1.791e-5
0.018, -1.902e-5
0.019, -1.809e-5
0.020, -1.945e-5
0.021, -1.988e-5
0.022, -1.945e-5
0.023, -2.052e-5
0.024, -1.935e-5
0.025, -1.991e-5
0.026, -2.384e-5
0.027, -2.086e-5
0.028, -2.089e-5
0.029, -2.221e-5
0.030, -2.200e-5
0.031, -2.249e-5
0.032, -2.212e-5
0.033, -2.326e-5
0.034, -2.384e-5
0.035, -2.298e-5
0.036, -2.402e-5
0.037, -2.424e-5
0.038, -2.445e-5
0.039, -2.602e-5
0.040, -2.412e-5
0.041, -2.473e-5
0.042, -2.660e-5
0.043, -2.528e-5
0.044, -2.587e-5
0.045, -2.688e-5
0.046, -2.676e-5
0.047, -2.713e-5
0.048, -2.651e-5
0.049, -2.756e-5
0.050, -2.829e-5
0.051, -2.756e-5
0.052, -2.983e-5
0.053, -2.823e-5
0.054, -2.851e-5
0.055, -2.962e-5
0.056, -2.876e-5
0.057, -2.925e-5
0.058, -3.091e-5
0.059, -2.968e-5
0.060, -3.011e-5
0.061, -3.140e-5
0.062, -3.134e-5
0.063, -3.137e-5
0.064, -3.075e-5
0.065, -3.220e-5
0.066, -3.263e-5
0.067, -3.161e-5
0.068, -3.269e-5
0.069, -3.296e-5
0.070, -3.281e-5
0.071, -3.395e-5
0.072, -3.263e-5
0.073, -3.383e-5
0.074, -3.567e-5
0.075, -3.426e-5
0.076, -3.416e-5
0.077, -3.684e-5
0.078, -3.561e-5
0.079, -3.542e-5
0.080, -3.478e-5
0.081, -3.601e-5
0.082, -3.687e-5
0.083, -3.555e-5
0.084, -3.662e-5
0.085, -3.711e-5
0.086, -3.742e-5
0.087, -3.874e-5
0.088, -3.899e-5
0.089, -3.687e-5
0.090, -3.976e-5
0.091, -3.764e-5
0.092, -3.840e-5
0.093, -3.966e-5
0.094, -3.969e-5
0.095, -3.997e-5
0.096, -3.951e-5
0.097, -4.089e-5
0.098, -4.203e-5
0.099, -4.092e-5
0.100, -4.221e-5
0.101, -4.197e-5
0.102, -4.200e-5
0.103, -4.584e-5
0.104, -4.243e-5
0.105, -4.274e-5
0.106, -4.449e-5
0.107, -4.317e-5
0.108, -4.396e-5
0.109, -4.489e-5
0.110, -4.464e-5
0.111, -4.569e-5
0.112, -4.519e-5
0.113, -4.621e-5
0.114, -4.667e-5
0.115, -4.648e-5
0.116, -4.765e-5
0.117, -4.750e-5
0.118, -4.771e-5
0.119, -4.879e-5
0.120, -4.790e-5
0.121, -4.848e-5
0.122, -5.072e-5
0.123, -4.946e-5
0.124, -5.036e-5
0.125, -5.128e-5
0.126, -5.162e-5
0.127, -5.158e-5
0.128, -5.137e-5
0.129, -5.340e-5
0.130, -5.306e-5
0.131, -5.235e-5
0.132, -5.367e-5
0.133, -5.460e-5
0.134, -5.447e-5
0.135, -5.598e-5
0.136, -5.536e-5
0.137, -5.582e-5
0.138, -5.785e-5
0.139, -5.690e-5
0.140, -5.758e-5
0.141, -5.988e-5
0.142, -5.939e-5
0.143, -5.936e-5
0.144, -5.917e-5
0.145, -6.040e-5
0.146, -6.197e-5
0.147, -6.129e-5
0.148, -6.258e-5
0.149, -6.354e-5
0.150, -6.329e-5
0.151, -6.510e-5
0.152, -6.477e-5
0.153, -6.563e-5
0.154, -6.993e-5
0.155, -6.670e-5
0.156, -6.658e-5
0.157, -6.839e-5
0.158, -6.925e-5
0.159, -7.024e-5
0.160, -7.014e-5
0.161, -7.143e-5
0.162, -7.263e-5
0.163, -7.245e-5
0.164, -7.438e-5
0.165, -7.530e-5
0.166, -7.577e-5
0.167, -7.758e-5
0.168, -7.626e-5
0.169, -7.749e-5
0.170, -8.056e-5
0.171, -7.961e-5
0.172, -8.065e-5
0.173, -8.259e-5
0.174, -8.280e-5
0.175, -8.382e-5
0.176, -8.418e-5
0.177, -8.624e-5
0.178, -8.750e-5
0.179, -8.710e-5
0.180, -8.990e-5
0.181, -9.015e-5
0.182, -9.076e-5
0.183, -9.288e-5
0.184, -9.239e-5
0.185, -9.374e-5
0.186, -9.641e-5
0.187, -9.614e-5
0.188, -9.767e-5
0.189, -9.979e-5
0.190, -1.006e-4
0.191, -1.017e-4
0.192, -1.018e-4
0.193, -1.045e-4
0.194, -1.058e-4
0.195, -1.062e-4
0.196, -1.075e-4
0.197, -1.089e-4
0.198, -1.099e-4
0.199, -1.121e-4
0.200, -1.121e-4
0.201, -1.142e-4
0.202, -1.170e-4
0.203, -1.161e-4
0.204, -1.172e-4
0.205, -1.211e-4
0.206, -1.213e-4
0.207, -1.219e-4
0.208, -1.226e-4
0.209, -1.248e-4
0.210, -1.264e-4
0.211, -1.269e-4
0.212, -1.290e-4
0.213, -1.302e-4
0.214, -1.313e-4
0.215, -1.337e-4
0.216, -1.336e-4
0.217, -1.350e-4
0.218, -1.384e-4
0.219, -1.379e-4
0.220, -1.390e-4
0.221, -1.411e-4
0.222, -1.417e-4
0.223, -1.431e-4
0.224, -1.431e-4
0.225, -1.453e-4
0.226, -1.474e-4
0.227, -1.478e-4
0.228, -1.495e-4
0.229, -1.502e-4
0.230, -1.510e-4
0.231, -1.541e-4
0.232, -1.527e-4
0.233, -1.546e-4
0.234, -1.568e-4
0.235, -1.557e-4
0.236, -1.568e-4
0.237, -1.591e-4
0.238, -1.600e-4
0.239, -1.610e-4
0.240, -1.612e-4
0.241, -1.620e-4
0.242, -1.633e-4
0.243, -1.636e-4
0.244, -1.658e-4
0.245, -1.659e-4
0.246, -1.662e-4
0.247, -1.674e-4
0.248, -1.664e-4
0.249, -1.676e-4
0.250, -1.706e-4
0.251, -1.696e-4
0.252, -1.701e-4
0.253, -1.707e-4
0.254, -1.706e-4
0.255, -1.713e-4
0.256, -1.714e-4
0.257, -1.737e-4
0.258, -1.732e-4
0.259, -1.718e-4
0.260, -1.727e-4
0.261, -1.734e-4
0.262, -1.737e-4
0.263, -1.750e-4
0.264, -1.741e-4
0.265, -1.744e-4
0.266, -1.754e-4
0.267, -1.739e-4
0.268, -1.746e-4
0.269, -1.765e-4
0.270, -1.756e-4
0.271, -1.749e-4
0.272, -1.737e-4
0.273, -1.744e-4
0.274, -1.751e-4
0.275, -1.746e-4
0.276, -1.752e-4
0.277, -1.749e-4
0.278, -1.738e-4
0.279, -1.746e-4
0.280, -1.732e-4
0.281, -1.738e-4
0.282, -1.768e-4
0.283, -1.728e-4
0.284, -1.723e-4
0.285, -1.729e-4
0.286, -1.727e-4
0.287, -1.725e-4
0.288, -1.718e-4
0.289, -1.716e-4
0.290, -1.716e-4
0.291, -1.704e-4
0.292, -1.710e-4
0.293, -1.708e-4
0.294, -1.703e-4
0.295, -1.711e-4
0.296, -1.685e-4
0.297, -1.682e-4
0.298, -1.694e-4
0.299, -1.683e-4
0.300, -1.678e-4
0.301, -1.684e-4
0.302, -1.670e-4
0.303, -1.666e-4
0.304, -1.659e-4
0.305, -1.667e-4
0.306, -1.666e-4
0.307, -1.648e-4
0.308, -1.666e-4
0.309, -1.636e-4
0.310, -1.634e-4
0.311, -1.644e-4
0.312, -1.633e-4
0.313, -1.629e-4
0.314, -1.635e-4
0.315, -1.611e-4
0.316, -1.614e-4
0.317, -1.624e-4
0.318, -1.618e-4
0.319, -1.609e-4
0.320, -1.592e-4
0.321, -1.596e-4
0.322, -1.599e-4
0.323, -1.592e-4
0.324, -1.595e-4
0.325, -1.589e-4
0.326, -1.577e-4
0.327, -1.579e-4
0.328, -1.567e-4
0.329, -1.572e-4
0.330, -1.586e-4
0.331, -1.567e-4
0.332, -1.557e-4
0.333, -1.572e-4
0.334, -1.556e-4
0.335, -1.550e-4
0.336, -1.543e-4
0.337, -1.546e-4
0.338, -1.552e-4
0.339, -1.526e-4
0.340, -1.529e-4
0.341, -1.531e-4
0.342, -1.527e-4
0.343, -1.533e-4
0.344, -1.516e-4
0.345, -1.514e-4
0.346, -1.539e-4
0.347, -1.515e-4
0.348, -1.513e-4
0.349, -1.516e-4
0.350, -1.504e-4
0.351, -1.503e-4
0.352, -1.495e-4
0.353, -1.503e-4
0.354, -1.509e-4
0.355, -1.496e-4
0.356, -1.491e-4
0.357, -1.485e-4
0.358, -1.483e-4
0.359, -1.516e-4
0.360, -1.482e-4
0.361, -1.476e-4
0.362, -1.488e-4
0.363, -1.469e-4
0.364, -1.468e-4
0.365, -1.477e-4
0.366, -1.474e-4
0.367, -1.471e-4
0.368, -1.461e-4
0.369, -1.460e-4
0.370, -1.468e-4
0.371, -1.454e-4
0.372, -1.467e-4
0.373, -1.457e-4
0.374, -1.451e-4
0.375, -1.453e-4
0.376, -1.442e-4
0.377, -1.446e-4
0.378, -1.460e-4
0.379, -1.444e-4
0.380, -1.440e-4
0.381, -1.446e-4
0.382, -1.439e-4
0.383, -1.437e-4
0.384, -1.431e-4
0.385, -1.440e-4
0.386, -1.430e-4
0.387, -1.420e-4
0.388, -1.431e-4
0.389, -1.435e-4
0.390, -1.431e-4
0.391, -1.433e-4
0.392, -1.416e-4
0.393, -1.415e-4
0.394, -1.434e-4
0.395, -1.418e-4
0.396, -1.416e-4
0.397, -1.427e-4
0.398, -1.414e-4
0.399, -1.410e-4
0.400, -1.407e-4
0.401, -1.418e-4
0.402, -1.417e-4
0.403, -1.397e-4
0.404, -1.404e-4
0.405, -1.406e-4
0.406, -1.407e-4
0.407, -1.417e-4
0.408, -1.395e-4
0.409, -1.394e-4
0.410, -1.409e-4
0.411, -1.398e-4
0.412, -1.404e-4
0.413, -1.412e-4
0.414, -1.400e-4
0.415, -1.395e-4
0.416, -1.383e-4
0.417, -1.391e-4
0.418, -1.403e-4
0.419, -1.393e-4
0.420, -1.400e-4
0.421, -1.393e-4
0.422, -1.382e-4
0.423, -1.396e-4
0.424, -1.376e-4
0.425, -1.387e-4
0.426, -1.398e-4
0.427, -1.384e-4
0.428, -1.377e-4
0.429, -1.384e-4
0.430, -1.382e-4
0.431, -1.387e-4
0.432, -1.378e-4
0.433, -1.382e-4
0.434, -1.384e-4
0.435, -1.371e-4
0.436, -1.388e-4
0.437, -1.379e-4
0.438, -1.373e-4
0.439, -1.380e-4
0.440, -1.366e-4
0.441, -1.370e-4
0.442, -1.389e-4
0.443, -1.372e-4
0.444, -1.374e-4
0.445, -1.385e-4
0.446, -1.368e-4
0.447, -1.368e-4
0.448, -1.364e-4
0.449, -1.374e-4
0.450, -1.379e-4
0.451, -1.365e-4
0.452, -1.368e-4
0.453, -1.368e-4
0.454, -1.368e-4
0.455, -1.377e-4
0.456, -1.366e-4
0.457, -1.368e-4
0.458, -1.382e-4
0.459, -1.363e-4
0.460, -1.365e-4
0.461, -1.392e-4
0.462, -1.371e-4
0.463, -1.364e-4
0.464, -1.358e-4
0.465, -1.367e-4
0.466, -1.373e-4
0.467, -1.363e-4
0.468, -1.373e-4
0.469, -1.371e-4
0.470, -1.366e-4
0.471, -1.374e-4
0.472, -1.359e-4
0.473, -1.364e-4
0.474, -1.389e-4
0.475, -1.364e-4
0.476, -1.363e-4
0.477, -1.371e-4
0.478, -1.363e-4
0.479, -1.366e-4
0.480, -1.359e-4
0.481, -1.372e-4
0.482, -1.374e-4
0.483, -1.360e-4
0.484, -1.369e-4
0.485, -1.371e-4
0.486, -1.372e-4
0.487, -1.394e-4
0.488, -1.362e-4
0.489, -1.360e-4
0.490, -1.375e-4
0.491, -1.363e-4
0.492, -1.368e-4
0.493, -1.376e-4
0.494, -1.371e-4
0.495, -1.366e-4
0.496, -1.359e-4
0.497, -1.375e-4
0.498, -1.382e-4
0.499, -1.374e-4
