Apr. 7, 2019   11:35:16
Cyclic Voltammetry
File: D:\process\data\cv4.bin.txt
Data Source:  Experiment
Instrument Model:  CHI900D
Header: 
Note: 

Init E (V) = 0.5
High E (V) = 0.5
Low E (V) = -0.1
Init P/N = N
Scan Rate (V/s) = 0.01
Segment = 2
Sample Interval (V) = 0.001
Quiet Time (sec) = 10
Sensitivity (A/V) = 1e-6

Segment 1:
Segment 2:

Potential/V, Current/A

0.500, -1.486e-7
0.499, -1.317e-7
0.498, -1.212e-7
0.497, -1.140e-7
0.496, -1.083e-7
0.495, -1.031e-7
0.494, -9.869e-8
0.493, -9.460e-8
0.492, -9.088e-8
0.491, -8.752e-8
0.490, -8.423e-8
0.489, -8.126e-8
0.488, -7.828e-8
0.487, -7.547e-8
0.486, -7.311e-8
0.485, -7.040e-8
0.484, -6.789e-8
0.483, -6.572e-8
0.482, -6.331e-8
0.481, -6.115e-8
0.480, -5.905e-8
0.479, -5.686e-8
0.478, -5.501e-8
0.477, -5.309e-8
0.476, -5.117e-8
0.475, -4.936e-8
0.474, -4.752e-8
0.473, -4.586e-8
0.472, -4.414e-8
0.471, -4.235e-8
0.470, -4.091e-8
0.469, -3.916e-8
0.468, -3.749e-8
0.467, -3.612e-8
0.466, -3.460e-8
0.465, -3.315e-8
0.464, -3.178e-8
0.463, -3.020e-8
0.462, -2.887e-8
0.461, -2.749e-8
0.460, -2.611e-8
0.459, -2.491e-8
0.458, -2.356e-8
0.457, -2.238e-8
0.456, -2.108e-8
0.455, -1.972e-8
0.454, -1.862e-8
0.453, -1.736e-8
0.452, -1.609e-8
0.451, -1.516e-8
0.450, -1.388e-8
0.449, -1.278e-8
0.448, -1.179e-8
0.447, -1.058e-8
0.446, -9.611e-9
0.445, -8.573e-9
0.444, -7.439e-9
0.443, -6.425e-9
0.442, -5.323e-9
0.441, -4.350e-9
0.440, -3.351e-9
0.439, -2.275e-9
0.438, -1.483e-9
0.437, -3.917e-10
0.436, 6.206e-10
0.435, 1.289e-9
0.434, 2.338e-9
0.433, 3.238e-9
0.432, 4.078e-9
0.431, 5.154e-9
0.430, 5.957e-9
0.429, 6.880e-9
0.428, 7.889e-9
0.427, 8.686e-9
0.426, 9.604e-9
0.425, 1.039e-8
0.424, 1.129e-8
0.423, 1.222e-8
0.422, 1.280e-8
0.421, 1.370e-8
0.420, 1.459e-8
0.419, 1.520e-8
0.418, 1.614e-8
0.417, 1.695e-8
0.416, 1.768e-8
0.415, 1.857e-8
0.414, 1.923e-8
0.413, 2.001e-8
0.412, 2.079e-8
0.411, 2.153e-8
0.410, 2.251e-8
0.409, 2.339e-8
0.408, 2.389e-8
0.407, 2.463e-8
0.406, 2.511e-8
0.405, 2.594e-8
0.404, 2.673e-8
0.403, 2.730e-8
0.402, 2.813e-8
0.401, 2.881e-8
0.400, 2.941e-8
0.399, 3.023e-8
0.398, 3.088e-8
0.397, 3.156e-8
0.396, 3.227e-8
0.395, 3.291e-8
0.394, 3.368e-8
0.393, 3.430e-8
0.392, 3.502e-8
0.391, 3.583e-8
0.390, 3.639e-8
0.389, 3.715e-8
0.388, 3.792e-8
0.387, 3.841e-8
0.386, 3.923e-8
0.385, 3.997e-8
0.384, 4.052e-8
0.383, 4.130e-8
0.382, 4.192e-8
0.381, 4.263e-8
0.380, 4.335e-8
0.379, 4.397e-8
0.378, 4.478e-8
0.377, 4.548e-8
0.376, 4.616e-8
0.375, 4.697e-8
0.374, 4.753e-8
0.373, 4.839e-8
0.372, 4.919e-8
0.371, 4.970e-8
0.370, 5.059e-8
0.369, 5.131e-8
0.368, 5.196e-8
0.367, 5.287e-8
0.366, 5.358e-8
0.365, 5.441e-8
0.364, 5.526e-8
0.363, 5.593e-8
0.362, 5.682e-8
0.361, 5.756e-8
0.360, 5.843e-8
0.359, 5.937e-8
0.358, 5.998e-8
0.357, 6.092e-8
0.356, 6.187e-8
0.355, 6.257e-8
0.354, 6.361e-8
0.353, 6.446e-8
0.352, 6.533e-8
0.351, 6.641e-8
0.350, 6.725e-8
0.349, 6.824e-8
0.348, 6.927e-8
0.347, 7.025e-8
0.346, 7.135e-8
0.345, 7.229e-8
0.344, 7.334e-8
0.343, 7.461e-8
0.342, 7.551e-8
0.341, 7.682e-8
0.340, 7.810e-8
0.339, 7.917e-8
0.338, 8.054e-8
0.337, 8.175e-8
0.336, 8.291e-8
0.335, 8.442e-8
0.334, 8.571e-8
0.333, 8.710e-8
0.332, 8.853e-8
0.331, 8.990e-8
0.330, 9.152e-8
0.329, 9.299e-8
0.328, 9.460e-8
0.327, 9.635e-8
0.326, 9.791e-8
0.325, 9.971e-8
0.324, 1.016e-7
0.323, 1.031e-7
0.322, 1.052e-7
0.321, 1.071e-7
0.320, 1.089e-7
0.319, 1.112e-7
0.318, 1.131e-7
0.317, 1.153e-7
0.316, 1.176e-7
0.315, 1.199e-7
0.314, 1.223e-7
0.313, 1.247e-7
0.312, 1.273e-7
0.311, 1.301e-7
0.310, 1.325e-7
0.309, 1.354e-7
0.308, 1.384e-7
0.307, 1.412e-7
0.306, 1.444e-7
0.305, 1.474e-7
0.304, 1.505e-7
0.303, 1.541e-7
0.302, 1.574e-7
0.301, 1.612e-7
0.300, 1.650e-7
0.299, 1.687e-7
0.298, 1.727e-7
0.297, 1.767e-7
0.296, 1.810e-7
0.295, 1.854e-7
0.294, 1.895e-7
0.293, 1.943e-7
0.292, 1.993e-7
0.291, 2.038e-7
0.290, 2.092e-7
0.289, 2.145e-7
0.288, 2.199e-7
0.287, 2.256e-7
0.286, 2.311e-7
0.285, 2.372e-7
0.284, 2.434e-7
0.283, 2.498e-7
0.282, 2.564e-7
0.281, 2.628e-7
0.280, 2.697e-7
0.279, 2.771e-7
0.278, 2.840e-7
0.277, 2.919e-7
0.276, 2.999e-7
0.275, 3.077e-7
0.274, 3.162e-7
0.273, 3.247e-7
0.272, 3.334e-7
0.271, 3.427e-7
0.270, 3.519e-7
0.269, 3.614e-7
0.268, 3.711e-7
0.267, 3.810e-7
0.266, 3.916e-7
0.265, 4.019e-7
0.264, 4.130e-7
0.263, 4.246e-7
0.262, 4.356e-7
0.261, 4.475e-7
0.260, 4.596e-7
0.259, 4.714e-7
0.258, 4.846e-7
0.257, 4.974e-7
0.256, 5.102e-7
0.255, 5.239e-7
0.254, 5.372e-7
0.253, 5.513e-7
0.252, 5.656e-7
0.251, 5.800e-7
0.250, 5.952e-7
0.249, 6.100e-7
0.248, 6.253e-7
0.247, 6.414e-7
0.246, 6.562e-7
0.245, 6.729e-7
0.244, 6.895e-7
0.243, 7.050e-7
0.242, 7.223e-7
0.241, 7.388e-7
0.240, 7.556e-7
0.239, 7.733e-7
0.238, 7.906e-7
0.237, 8.085e-7
0.236, 8.263e-7
0.235, 8.439e-7
0.234, 8.621e-7
0.233, 8.793e-7
0.232, 8.979e-7
0.231, 9.164e-7
0.230, 9.328e-7
0.229, 9.515e-7
0.228, 9.699e-7
0.227, 9.870e-7
0.226, 1.006e-6
0.225, 1.023e-6
0.224, 1.041e-6
0.223, 1.059e-6
0.222, 1.076e-6
0.221, 1.094e-6
0.220, 1.111e-6
0.219, 1.128e-6
0.218, 1.145e-6
0.217, 1.160e-6
0.216, 1.176e-6
0.215, 1.193e-6
0.214, 1.207e-6
0.213, 1.223e-6
0.212, 1.239e-6
0.211, 1.252e-6
0.210, 1.267e-6
0.209, 1.281e-6
0.208, 1.294e-6
0.207, 1.307e-6
0.206, 1.319e-6
0.205, 1.332e-6
0.204, 1.344e-6
0.203, 1.354e-6
0.202, 1.365e-6
0.201, 1.374e-6
0.200, 1.384e-6
0.199, 1.394e-6
0.198, 1.402e-6
0.197, 1.410e-6
0.196, 1.418e-6
0.195, 1.424e-6
0.194, 1.432e-6
0.193, 1.438e-6
0.192, 1.443e-6
0.191, 1.449e-6
0.190, 1.453e-6
0.189, 1.458e-6
0.188, 1.462e-6
0.187, 1.465e-6
0.186, 1.469e-6
0.185, 1.471e-6
0.184, 1.473e-6
0.183, 1.475e-6
0.182, 1.476e-6
0.181, 1.478e-6
0.180, 1.479e-6
0.179, 1.478e-6
0.178, 1.478e-6
0.177, 1.478e-6
0.176, 1.477e-6
0.175, 1.476e-6
0.174, 1.475e-6
0.173, 1.474e-6
0.172, 1.472e-6
0.171, 1.470e-6
0.170, 1.468e-6
0.169, 1.465e-6
0.168, 1.462e-6
0.167, 1.460e-6
0.166, 1.456e-6
0.165, 1.453e-6
0.164, 1.450e-6
0.163, 1.445e-6
0.162, 1.442e-6
0.161, 1.438e-6
0.160, 1.434e-6
0.159, 1.430e-6
0.158, 1.426e-6
0.157, 1.422e-6
0.156, 1.417e-6
0.155, 1.412e-6
0.154, 1.408e-6
0.153, 1.403e-6
0.152, 1.398e-6
0.151, 1.394e-6
0.150, 1.388e-6
0.149, 1.384e-6
0.148, 1.379e-6
0.147, 1.374e-6
0.146, 1.369e-6
0.145, 1.364e-6
0.144, 1.359e-6
0.143, 1.355e-6
0.142, 1.349e-6
0.141, 1.344e-6
0.140, 1.339e-6
0.139, 1.334e-6
0.138, 1.329e-6
0.137, 1.324e-6
0.136, 1.319e-6
0.135, 1.315e-6
0.134, 1.309e-6
0.133, 1.305e-6
0.132, 1.300e-6
0.131, 1.295e-6
0.130, 1.290e-6
0.129, 1.285e-6
0.128, 1.280e-6
0.127, 1.276e-6
0.126, 1.271e-6
0.125, 1.266e-6
0.124, 1.262e-6
0.123, 1.257e-6
0.122, 1.253e-6
0.121, 1.248e-6
0.120, 1.244e-6
0.119, 1.239e-6
0.118, 1.234e-6
0.117, 1.230e-6
0.116, 1.226e-6
0.115, 1.222e-6
0.114, 1.217e-6
0.113, 1.213e-6
0.112, 1.209e-6
0.111, 1.205e-6
0.110, 1.201e-6
0.109, 1.197e-6
0.108, 1.193e-6
0.107, 1.189e-6
0.106, 1.185e-6
0.105, 1.181e-6
0.104, 1.177e-6
0.103, 1.174e-6
0.102, 1.170e-6
0.101, 1.166e-6
0.100, 1.163e-6
0.099, 1.159e-6
0.098, 1.155e-6
0.097, 1.152e-6
0.096, 1.148e-6
0.095, 1.145e-6
0.094, 1.141e-6
0.093, 1.138e-6
0.092, 1.135e-6
0.091, 1.131e-6
0.090, 1.128e-6
0.089, 1.125e-6
0.088, 1.122e-6
0.087, 1.119e-6
0.086, 1.116e-6
0.085, 1.113e-6
0.084, 1.110e-6
0.083, 1.107e-6
0.082, 1.104e-6
0.081, 1.101e-6
0.080, 1.098e-6
0.079, 1.096e-6
0.078, 1.093e-6
0.077, 1.090e-6
0.076, 1.087e-6
0.075, 1.085e-6
0.074, 1.082e-6
0.073, 1.080e-6
0.072, 1.077e-6
0.071, 1.075e-6
0.070, 1.072e-6
0.069, 1.070e-6
0.068, 1.068e-6
0.067, 1.065e-6
0.066, 1.063e-6
0.065, 1.061e-6
0.064, 1.059e-6
0.063, 1.057e-6
0.062, 1.055e-6
0.061, 1.053e-6
0.060, 1.051e-6
0.059, 1.049e-6
0.058, 1.047e-6
0.057, 1.045e-6
0.056, 1.043e-6
0.055, 1.041e-6
0.054, 1.039e-6
0.053, 1.038e-6
0.052, 1.036e-6
0.051, 1.034e-6
0.050, 1.033e-6
0.049, 1.031e-6
0.048, 1.029e-6
0.047, 1.028e-6
0.046, 1.026e-6
0.045, 1.025e-6
0.044, 1.024e-6
0.043, 1.022e-6
0.042, 1.021e-6
0.041, 1.019e-6
0.040, 1.018e-6
0.039, 1.017e-6
0.038, 1.016e-6
0.037, 1.014e-6
0.036, 1.013e-6
0.035, 1.012e-6
0.034, 1.011e-6
0.033, 1.010e-6
0.032, 1.009e-6
0.031, 1.008e-6
0.030, 1.007e-6
0.029, 1.006e-6
0.028, 1.005e-6
0.027, 1.004e-6
0.026, 1.004e-6
0.025, 1.003e-6
0.024, 1.002e-6
0.023, 1.001e-6
0.022, 1.000e-6
0.021, 9.999e-7
0.020, 9.994e-7
0.019, 9.986e-7
0.018, 9.982e-7
0.017, 9.977e-7
0.016, 9.970e-7
0.015, 9.966e-7
0.014, 9.961e-7
0.013, 9.957e-7
0.012, 9.952e-7
0.011, 9.948e-7
0.010, 9.946e-7
0.009, 9.942e-7
0.008, 9.940e-7
0.007, 9.939e-7
0.006, 9.936e-7
0.005, 9.936e-7
0.004, 9.938e-7
0.003, 9.936e-7
0.002, 9.935e-7
0.001, 9.933e-7
0.000, 9.936e-7
-0.001, 9.936e-7
-0.002, 9.933e-7
-0.003, 9.933e-7
-0.004, 9.934e-7
-0.005, 9.934e-7
-0.006, 9.936e-7
-0.007, 9.936e-7
-0.008, 9.938e-7
-0.009, 9.941e-7
-0.010, 9.942e-7
-0.011, 9.946e-7
-0.012, 9.949e-7
-0.013, 9.950e-7
-0.014, 9.955e-7
-0.015, 9.959e-7
-0.016, 9.963e-7
-0.017, 9.968e-7
-0.018, 9.973e-7
-0.019, 9.979e-7
-0.020, 9.985e-7
-0.021, 9.990e-7
-0.022, 9.997e-7
-0.023, 1.000e-6
-0.024, 1.001e-6
-0.025, 1.002e-6
-0.026, 1.002e-6
-0.027, 1.003e-6
-0.028, 1.004e-6
-0.029, 1.005e-6
-0.030, 1.006e-6
-0.031, 1.006e-6
-0.032, 1.007e-6
-0.033, 1.008e-6
-0.034, 1.009e-6
-0.035, 1.010e-6
-0.036, 1.011e-6
-0.037, 1.012e-6
-0.038, 1.013e-6
-0.039, 1.015e-6
-0.040, 1.016e-6
-0.041, 1.017e-6
-0.042, 1.018e-6
-0.043, 1.019e-6
-0.044, 1.021e-6
-0.045, 1.022e-6
-0.046, 1.023e-6
-0.047, 1.025e-6
-0.048, 1.026e-6
-0.049, 1.028e-6
-0.050, 1.029e-6
-0.051, 1.031e-6
-0.052, 1.032e-6
-0.053, 1.034e-6
-0.054, 1.035e-6
-0.055, 1.037e-6
-0.056, 1.039e-6
-0.057, 1.040e-6
-0.058, 1.042e-6
-0.059, 1.044e-6
-0.060, 1.046e-6
-0.061, 1.047e-6
-0.062, 1.049e-6
-0.063, 1.051e-6
-0.064, 1.053e-6
-0.065, 1.055e-6
-0.066, 1.057e-6
-0.067, 1.059e-6
-0.068, 1.061e-6
-0.069, 1.063e-6
-0.070, 1.066e-6
-0.071, 1.068e-6
-0.072, 1.070e-6
-0.073, 1.072e-6
-0.074, 1.074e-6
-0.075, 1.077e-6
-0.076, 1.079e-6
-0.077, 1.081e-6
-0.078, 1.084e-6
-0.079, 1.086e-6
-0.080, 1.089e-6
-0.081, 1.091e-6
-0.082, 1.094e-6
-0.083, 1.096e-6
-0.084, 1.099e-6
-0.085, 1.102e-6
-0.086, 1.104e-6
-0.087, 1.107e-6
-0.088, 1.110e-6
-0.089, 1.113e-6
-0.090, 1.116e-6
-0.091, 1.119e-6
-0.092, 1.122e-6
-0.093, 1.124e-6
-0.094, 1.128e-6
-0.095, 1.131e-6
-0.096, 1.134e-6
-0.097, 1.137e-6
-0.098, 1.140e-6
-0.099, 1.143e-6
-0.100, 1.133e-6
-0.099, 1.099e-6
-0.098, 1.074e-6
-0.097, 1.054e-6
-0.096, 1.037e-6
-0.095, 1.022e-6
-0.094, 1.007e-6
-0.093, 9.942e-7
-0.092, 9.816e-7
-0.091, 9.698e-7
-0.090, 9.584e-7
-0.089, 9.474e-7
-0.088, 9.369e-7
-0.087, 9.268e-7
-0.086, 9.172e-7
-0.085, 9.078e-7
-0.084, 8.987e-7
-0.083, 8.901e-7
-0.082, 8.816e-7
-0.081, 8.733e-7
-0.080, 8.654e-7
-0.079, 8.576e-7
-0.078, 8.501e-7
-0.077, 8.429e-7
-0.076, 8.357e-7
-0.075, 8.288e-7
-0.074, 8.220e-7
-0.073, 8.154e-7
-0.072, 8.090e-7
-0.071, 8.027e-7
-0.070, 7.966e-7
-0.069, 7.905e-7
-0.068, 7.846e-7
-0.067, 7.791e-7
-0.066, 7.734e-7
-0.065, 7.680e-7
-0.064, 7.628e-7
-0.063, 7.575e-7
-0.062, 7.524e-7
-0.061, 7.475e-7
-0.060, 7.425e-7
-0.059, 7.379e-7
-0.058, 7.331e-7
-0.057, 7.285e-7
-0.056, 7.241e-7
-0.055, 7.195e-7
-0.054, 7.153e-7
-0.053, 7.110e-7
-0.052, 7.067e-7
-0.051, 7.028e-7
-0.050, 6.987e-7
-0.049, 6.947e-7
-0.048, 6.910e-7
-0.047, 6.871e-7
-0.046, 6.834e-7
-0.045, 6.797e-7
-0.044, 6.760e-7
-0.043, 6.726e-7
-0.042, 6.691e-7
-0.041, 6.657e-7
-0.040, 6.624e-7
-0.039, 6.590e-7
-0.038, 6.559e-7
-0.037, 6.527e-7
-0.036, 6.494e-7
-0.035, 6.465e-7
-0.034, 6.433e-7
-0.033, 6.403e-7
-0.032, 6.374e-7
-0.031, 6.343e-7
-0.030, 6.315e-7
-0.029, 6.288e-7
-0.028, 6.259e-7
-0.027, 6.233e-7
-0.026, 6.206e-7
-0.025, 6.179e-7
-0.024, 6.153e-7
-0.023, 6.126e-7
-0.022, 6.102e-7
-0.021, 6.076e-7
-0.020, 6.051e-7
-0.019, 6.027e-7
-0.018, 6.002e-7
-0.017, 5.978e-7
-0.016, 5.956e-7
-0.015, 5.932e-7
-0.014, 5.910e-7
-0.013, 5.888e-7
-0.012, 5.865e-7
-0.011, 5.843e-7
-0.010, 5.821e-7
-0.009, 5.799e-7
-0.008, 5.778e-7
-0.007, 5.756e-7
-0.006, 5.736e-7
-0.005, 5.715e-7
-0.004, 5.693e-7
-0.003, 5.675e-7
-0.002, 5.654e-7
-0.001, 5.633e-7
-0.000, 5.611e-7
0.001, 5.591e-7
0.002, 5.572e-7
0.003, 5.554e-7
0.004, 5.534e-7
0.005, 5.516e-7
0.006, 5.497e-7
0.007, 5.478e-7
0.008, 5.460e-7
0.009, 5.441e-7
0.010, 5.424e-7
0.011, 5.406e-7
0.012, 5.386e-7
0.013, 5.371e-7
0.014, 5.352e-7
0.015, 5.334e-7
0.016, 5.318e-7
0.017, 5.299e-7
0.018, 5.282e-7
0.019, 5.265e-7
0.020, 5.247e-7
0.021, 5.230e-7
0.022, 5.213e-7
0.023, 5.196e-7
0.024, 5.180e-7
0.025, 5.162e-7
0.026, 5.147e-7
0.027, 5.129e-7
0.028, 5.110e-7
0.029, 5.096e-7
0.030, 5.078e-7
0.031, 5.060e-7
0.032, 5.045e-7
0.033, 5.026e-7
0.034, 5.010e-7
0.035, 4.994e-7
0.036, 4.976e-7
0.037, 4.961e-7
0.038, 4.944e-7
0.039, 4.927e-7
0.040, 4.910e-7
0.041, 4.892e-7
0.042, 4.876e-7
0.043, 4.858e-7
0.044, 4.840e-7
0.045, 4.824e-7
0.046, 4.806e-7
0.047, 4.788e-7
0.048, 4.772e-7
0.049, 4.753e-7
0.050, 4.736e-7
0.051, 4.719e-7
0.052, 4.700e-7
0.053, 4.682e-7
0.054, 4.664e-7
0.055, 4.646e-7
0.056, 4.628e-7
0.057, 4.609e-7
0.058, 4.591e-7
0.059, 4.572e-7
0.060, 4.553e-7
0.061, 4.537e-7
0.062, 4.516e-7
0.063, 4.496e-7
0.064, 4.479e-7
0.065, 4.459e-7
0.066, 4.439e-7
0.067, 4.419e-7
0.068, 4.398e-7
0.069, 4.379e-7
0.070, 4.359e-7
0.071, 4.338e-7
0.072, 4.318e-7
0.073, 4.296e-7
0.074, 4.276e-7
0.075, 4.254e-7
0.076, 4.232e-7
0.077, 4.213e-7
0.078, 4.189e-7
0.079, 4.166e-7
0.080, 4.145e-7
0.081, 4.121e-7
0.082, 4.098e-7
0.083, 4.075e-7
0.084, 4.050e-7
0.085, 4.027e-7
0.086, 4.002e-7
0.087, 3.978e-7
0.088, 3.954e-7
0.089, 3.928e-7
0.090, 3.904e-7
0.091, 3.877e-7
0.092, 3.849e-7
0.093, 3.826e-7
0.094, 3.797e-7
0.095, 3.771e-7
0.096, 3.744e-7
0.097, 3.714e-7
0.098, 3.687e-7
0.099, 3.659e-7
0.100, 3.628e-7
0.101, 3.600e-7
0.102, 3.569e-7
0.103, 3.538e-7
0.104, 3.507e-7
0.105, 3.475e-7
0.106, 3.445e-7
0.107, 3.411e-7
0.108, 3.377e-7
0.109, 3.346e-7
0.110, 3.310e-7
0.111, 3.275e-7
0.112, 3.242e-7
0.113, 3.204e-7
0.114, 3.168e-7
0.115, 3.132e-7
0.116, 3.092e-7
0.117, 3.054e-7
0.118, 3.014e-7
0.119, 2.975e-7
0.120, 2.934e-7
0.121, 2.891e-7
0.122, 2.849e-7
0.123, 2.804e-7
0.124, 2.759e-7
0.125, 2.717e-7
0.126, 2.668e-7
0.127, 2.620e-7
0.128, 2.576e-7
0.129, 2.523e-7
0.130, 2.472e-7
0.131, 2.420e-7
0.132, 2.365e-7
0.133, 2.312e-7
0.134, 2.254e-7
0.135, 2.197e-7
0.136, 2.139e-7
0.137, 2.077e-7
0.138, 2.018e-7
0.139, 1.954e-7
0.140, 1.887e-7
0.141, 1.826e-7
0.142, 1.756e-7
0.143, 1.683e-7
0.144, 1.615e-7
0.145, 1.539e-7
0.146, 1.464e-7
0.147, 1.387e-7
0.148, 1.305e-7
0.149, 1.226e-7
0.150, 1.143e-7
0.151, 1.058e-7
0.152, 9.723e-8
0.153, 8.800e-8
0.154, 7.912e-8
0.155, 6.935e-8
0.156, 5.927e-8
0.157, 4.994e-8
0.158, 3.944e-8
0.159, 2.889e-8
0.160, 1.849e-8
0.161, 6.993e-9
0.162, -4.125e-9
0.163, -1.541e-8
0.164, -2.731e-8
0.165, -3.885e-8
0.166, -5.137e-8
0.167, -6.365e-8
0.168, -7.650e-8
0.169, -9.002e-8
0.170, -1.027e-7
0.171, -1.166e-7
0.172, -1.308e-7
0.173, -1.445e-7
0.174, -1.594e-7
0.175, -1.742e-7
0.176, -1.883e-7
0.177, -2.039e-7
0.178, -2.191e-7
0.179, -2.345e-7
0.180, -2.505e-7
0.181, -2.667e-7
0.182, -2.833e-7
0.183, -2.997e-7
0.184, -3.163e-7
0.185, -3.338e-7
0.186, -3.506e-7
0.187, -3.680e-7
0.188, -3.860e-7
0.189, -4.024e-7
0.190, -4.206e-7
0.191, -4.384e-7
0.192, -4.554e-7
0.193, -4.739e-7
0.194, -4.919e-7
0.195, -5.095e-7
0.196, -5.279e-7
0.197, -5.453e-7
0.198, -5.638e-7
0.199, -5.818e-7
0.200, -5.992e-7
0.201, -6.172e-7
0.202, -6.340e-7
0.203, -6.518e-7
0.204, -6.693e-7
0.205, -6.864e-7
0.206, -7.040e-7
0.207, -7.211e-7
0.208, -7.365e-7
0.209, -7.529e-7
0.210, -7.687e-7
0.211, -7.843e-7
0.212, -7.998e-7
0.213, -8.142e-7
0.214, -8.289e-7
0.215, -8.425e-7
0.216, -8.560e-7
0.217, -8.698e-7
0.218, -8.816e-7
0.219, -8.946e-7
0.220, -9.072e-7
0.221, -9.173e-7
0.222, -9.291e-7
0.223, -9.399e-7
0.224, -9.496e-7
0.225, -9.599e-7
0.226, -9.686e-7
0.227, -9.768e-7
0.228, -9.850e-7
0.229, -9.920e-7
0.230, -9.990e-7
0.231, -1.005e-6
0.232, -1.011e-6
0.233, -1.018e-6
0.234, -1.022e-6
0.235, -1.027e-6
0.236, -1.031e-6
0.237, -1.034e-6
0.238, -1.038e-6
0.239, -1.040e-6
0.240, -1.042e-6
0.241, -1.044e-6
0.242, -1.045e-6
0.243, -1.046e-6
0.244, -1.047e-6
0.245, -1.046e-6
0.246, -1.046e-6
0.247, -1.045e-6
0.248, -1.044e-6
0.249, -1.043e-6
0.250, -1.041e-6
0.251, -1.039e-6
0.252, -1.038e-6
0.253, -1.034e-6
0.254, -1.032e-6
0.255, -1.028e-6
0.256, -1.025e-6
0.257, -1.021e-6
0.258, -1.018e-6
0.259, -1.013e-6
0.260, -1.009e-6
0.261, -1.004e-6
0.262, -1.000e-6
0.263, -9.952e-7
0.264, -9.902e-7
0.265, -9.853e-7
0.266, -9.796e-7
0.267, -9.744e-7
0.268, -9.692e-7
0.269, -9.630e-7
0.270, -9.577e-7
0.271, -9.522e-7
0.272, -9.459e-7
0.273, -9.403e-7
0.274, -9.342e-7
0.275, -9.283e-7
0.276, -9.225e-7
0.277, -9.162e-7
0.278, -9.102e-7
0.279, -9.040e-7
0.280, -8.978e-7
0.281, -8.918e-7
0.282, -8.853e-7
0.283, -8.795e-7
0.284, -8.738e-7
0.285, -8.672e-7
0.286, -8.613e-7
0.287, -8.553e-7
0.288, -8.491e-7
0.289, -8.434e-7
0.290, -8.374e-7
0.291, -8.313e-7
0.292, -8.255e-7
0.293, -8.195e-7
0.294, -8.138e-7
0.295, -8.080e-7
0.296, -8.022e-7
0.297, -7.968e-7
0.298, -7.909e-7
0.299, -7.854e-7
0.300, -7.800e-7
0.301, -7.743e-7
0.302, -7.690e-7
0.303, -7.637e-7
0.304, -7.582e-7
0.305, -7.531e-7
0.306, -7.478e-7
0.307, -7.428e-7
0.308, -7.379e-7
0.309, -7.328e-7
0.310, -7.279e-7
0.311, -7.230e-7
0.312, -7.181e-7
0.313, -7.135e-7
0.314, -7.087e-7
0.315, -7.041e-7
0.316, -6.996e-7
0.317, -6.948e-7
0.318, -6.904e-7
0.319, -6.861e-7
0.320, -6.815e-7
0.321, -6.774e-7
0.322, -6.732e-7
0.323, -6.689e-7
0.324, -6.650e-7
0.325, -6.609e-7
0.326, -6.570e-7
0.327, -6.531e-7
0.328, -6.492e-7
0.329, -6.454e-7
0.330, -6.415e-7
0.331, -6.378e-7
0.332, -6.343e-7
0.333, -6.303e-7
0.334, -6.269e-7
0.335, -6.235e-7
0.336, -6.198e-7
0.337, -6.165e-7
0.338, -6.131e-7
0.339, -6.097e-7
0.340, -6.065e-7
0.341, -6.033e-7
0.342, -6.001e-7
0.343, -5.970e-7
0.344, -5.938e-7
0.345, -5.909e-7
0.346, -5.877e-7
0.347, -5.848e-7
0.348, -5.820e-7
0.349, -5.789e-7
0.350, -5.762e-7
0.351, -5.735e-7
0.352, -5.706e-7
0.353, -5.680e-7
0.354, -5.653e-7
0.355, -5.626e-7
0.356, -5.601e-7
0.357, -5.574e-7
0.358, -5.549e-7
0.359, -5.524e-7
0.360, -5.500e-7
0.361, -5.476e-7
0.362, -5.451e-7
0.363, -5.428e-7
0.364, -5.406e-7
0.365, -5.381e-7
0.366, -5.359e-7
0.367, -5.338e-7
0.368, -5.314e-7
0.369, -5.294e-7
0.370, -5.272e-7
0.371, -5.251e-7
0.372, -5.231e-7
0.373, -5.210e-7
0.374, -5.190e-7
0.375, -5.171e-7
0.376, -5.150e-7
0.377, -5.132e-7
0.378, -5.113e-7
0.379, -5.094e-7
0.380, -5.077e-7
0.381, -5.057e-7
0.382, -5.040e-7
0.383, -5.022e-7
0.384, -5.002e-7
0.385, -4.987e-7
0.386, -4.971e-7
0.387, -4.953e-7
0.388, -4.938e-7
0.389, -4.921e-7
0.390, -4.905e-7
0.391, -4.890e-7
0.392, -4.873e-7
0.393, -4.859e-7
0.394, -4.843e-7
0.395, -4.828e-7
0.396, -4.815e-7
0.397, -4.798e-7
0.398, -4.785e-7
0.399, -4.772e-7
0.400, -4.756e-7
0.401, -4.744e-7
0.402, -4.730e-7
0.403, -4.717e-7
0.404, -4.705e-7
0.405, -4.691e-7
0.406, -4.678e-7
0.407, -4.665e-7
0.408, -4.652e-7
0.409, -4.642e-7
0.410, -4.633e-7
0.411, -4.620e-7
0.412, -4.608e-7
0.413, -4.594e-7
0.414, -4.584e-7
0.415, -4.573e-7
0.416, -4.561e-7
0.417, -4.552e-7
0.418, -4.541e-7
0.419, -4.530e-7
0.420, -4.520e-7
0.421, -4.509e-7
0.422, -4.499e-7
0.423, -4.489e-7
0.424, -4.480e-7
0.425, -4.472e-7
0.426, -4.462e-7
0.427, -4.453e-7
0.428, -4.445e-7
0.429, -4.434e-7
0.430, -4.427e-7
0.431, -4.419e-7
0.432, -4.409e-7
0.433, -4.402e-7
0.434, -4.393e-7
0.435, -4.384e-7
0.436, -4.378e-7
0.437, -4.370e-7
0.438, -4.362e-7
0.439, -4.355e-7
0.440, -4.347e-7
0.441, -4.341e-7
0.442, -4.334e-7
0.443, -4.328e-7
0.444, -4.322e-7
0.445, -4.313e-7
0.446, -4.308e-7
0.447, -4.302e-7
0.448, -4.294e-7
0.449, -4.290e-7
0.450, -4.284e-7
0.451, -4.278e-7
0.452, -4.274e-7
0.453, -4.268e-7
0.454, -4.263e-7
0.455, -4.259e-7
0.456, -4.253e-7
0.457, -4.249e-7
0.458, -4.243e-7
0.459, -4.238e-7
0.460, -4.235e-7
0.461, -4.228e-7
0.462, -4.226e-7
0.463, -4.223e-7
0.464, -4.217e-7
0.465, -4.215e-7
0.466, -4.211e-7
0.467, -4.208e-7
0.468, -4.205e-7
0.469, -4.201e-7
0.470, -4.198e-7
0.471, -4.195e-7
0.472, -4.192e-7
0.473, -4.190e-7
0.474, -4.186e-7
0.475, -4.184e-7
0.476, -4.183e-7
0.477, -4.179e-7
0.478, -4.178e-7
0.479, -4.177e-7
0.480, -4.174e-7
0.481, -4.174e-7
0.482, -4.172e-7
0.483, -4.170e-7
0.484, -4.169e-7
0.485, -4.167e-7
0.486, -4.166e-7
0.487, -4.165e-7
0.488, -4.165e-7
0.489, -4.165e-7
0.490, -4.164e-7
0.491, -4.164e-7
0.492, -4.165e-7
0.493, -4.163e-7
0.494, -4.164e-7
0.495, -4.166e-7
0.496, -4.164e-7
0.497, -4.166e-7
0.498, -4.166e-7
0.499, -4.166e-7
