Apr. 7, 2019   11:35:41
Cyclic Voltammetry
File: D:\process\data\cv5.bin.txt
Data Source:  Experiment
Instrument Model:  CHI900D
Header: 
Note: 

Init E (V) = 0.5
High E (V) = 0.5
Low E (V) = -0.1
Init P/N = N
Scan Rate (V/s) = 0.1
Segment = 2
Sample Interval (V) = 0.001
Quiet Time (sec) = 10
Sensitivity (A/V) = 1e-6

Segment 1:
Segment 2:

Potential/V, Current/A

0.500, -1.518e-7
0.499, -9.369e-8
0.498, -6.720e-8
0.497, -4.641e-8
0.496, -3.158e-8
0.495, -1.558e-8
0.494, -2.534e-9
0.493, 8.873e-9
0.492, 2.126e-8
0.491, 2.988e-8
0.490, 3.916e-8
0.489, 4.954e-8
0.488, 5.709e-8
0.487, 6.519e-8
0.486, 7.276e-8
0.485, 7.986e-8
0.484, 8.821e-8
0.483, 9.275e-8
0.482, 1.004e-7
0.481, 1.077e-7
0.480, 1.124e-7
0.479, 1.188e-7
0.478, 1.251e-7
0.477, 1.290e-7
0.476, 1.365e-7
0.475, 1.400e-7
0.474, 1.449e-7
0.473, 1.514e-7
0.472, 1.546e-7
0.471, 1.602e-7
0.470, 1.645e-7
0.469, 1.687e-7
0.468, 1.745e-7
0.467, 1.775e-7
0.466, 1.817e-7
0.465, 1.871e-7
0.464, 1.894e-7
0.463, 1.946e-7
0.462, 1.983e-7
0.461, 2.012e-7
0.460, 2.064e-7
0.459, 2.084e-7
0.458, 2.116e-7
0.457, 2.167e-7
0.456, 2.196e-7
0.455, 2.235e-7
0.454, 2.262e-7
0.453, 2.296e-7
0.452, 2.342e-7
0.451, 2.352e-7
0.450, 2.394e-7
0.449, 2.432e-7
0.448, 2.444e-7
0.447, 2.485e-7
0.446, 2.521e-7
0.445, 2.533e-7
0.444, 2.584e-7
0.443, 2.596e-7
0.442, 2.629e-7
0.441, 2.668e-7
0.440, 2.684e-7
0.439, 2.713e-7
0.438, 2.742e-7
0.437, 2.770e-7
0.436, 2.806e-7
0.435, 2.809e-7
0.434, 2.841e-7
0.433, 2.881e-7
0.432, 2.888e-7
0.431, 2.923e-7
0.430, 2.950e-7
0.429, 2.969e-7
0.428, 3.007e-7
0.427, 3.019e-7
0.426, 3.037e-7
0.425, 3.078e-7
0.424, 3.096e-7
0.423, 3.115e-7
0.422, 3.138e-7
0.421, 3.159e-7
0.420, 3.201e-7
0.419, 3.199e-7
0.418, 3.235e-7
0.417, 3.267e-7
0.416, 3.275e-7
0.415, 3.310e-7
0.414, 3.333e-7
0.413, 3.340e-7
0.412, 3.383e-7
0.411, 3.393e-7
0.410, 3.433e-7
0.409, 3.454e-7
0.408, 3.463e-7
0.407, 3.488e-7
0.406, 3.507e-7
0.405, 3.526e-7
0.404, 3.562e-7
0.403, 3.566e-7
0.402, 3.591e-7
0.401, 3.624e-7
0.400, 3.627e-7
0.399, 3.665e-7
0.398, 3.688e-7
0.397, 3.691e-7
0.396, 3.734e-7
0.395, 3.742e-7
0.394, 3.760e-7
0.393, 3.797e-7
0.392, 3.807e-7
0.391, 3.836e-7
0.390, 3.858e-7
0.389, 3.874e-7
0.388, 3.915e-7
0.387, 3.911e-7
0.386, 3.945e-7
0.385, 3.978e-7
0.384, 3.978e-7
0.383, 4.015e-7
0.382, 4.036e-7
0.381, 4.050e-7
0.380, 4.089e-7
0.379, 4.100e-7
0.378, 4.128e-7
0.377, 4.160e-7
0.376, 4.169e-7
0.375, 4.201e-7
0.374, 4.225e-7
0.373, 4.243e-7
0.372, 4.284e-7
0.371, 4.285e-7
0.370, 4.316e-7
0.369, 4.355e-7
0.368, 4.363e-7
0.367, 4.397e-7
0.366, 4.424e-7
0.365, 4.444e-7
0.364, 4.487e-7
0.363, 4.499e-7
0.362, 4.524e-7
0.361, 4.566e-7
0.360, 4.583e-7
0.359, 4.616e-7
0.358, 4.642e-7
0.357, 4.664e-7
0.356, 4.713e-7
0.355, 4.719e-7
0.354, 4.759e-7
0.353, 4.802e-7
0.352, 4.819e-7
0.351, 4.860e-7
0.350, 4.892e-7
0.349, 4.917e-7
0.348, 4.968e-7
0.347, 4.989e-7
0.346, 5.019e-7
0.345, 5.068e-7
0.344, 5.093e-7
0.343, 5.135e-7
0.342, 5.172e-7
0.341, 5.213e-7
0.340, 5.264e-7
0.339, 5.289e-7
0.338, 5.332e-7
0.337, 5.388e-7
0.336, 5.410e-7
0.335, 5.473e-7
0.334, 5.516e-7
0.333, 5.547e-7
0.332, 5.616e-7
0.331, 5.647e-7
0.330, 5.698e-7
0.329, 5.758e-7
0.328, 5.806e-7
0.327, 5.868e-7
0.326, 5.921e-7
0.325, 5.971e-7
0.324, 6.048e-7
0.323, 6.084e-7
0.322, 6.157e-7
0.321, 6.229e-7
0.320, 6.273e-7
0.319, 6.356e-7
0.318, 6.424e-7
0.317, 6.482e-7
0.316, 6.581e-7
0.315, 6.638e-7
0.314, 6.720e-7
0.313, 6.812e-7
0.312, 6.882e-7
0.311, 6.973e-7
0.310, 7.058e-7
0.309, 7.149e-7
0.308, 7.258e-7
0.307, 7.329e-7
0.306, 7.435e-7
0.305, 7.551e-7
0.304, 7.632e-7
0.303, 7.756e-7
0.302, 7.864e-7
0.301, 7.973e-7
0.300, 8.115e-7
0.299, 8.214e-7
0.298, 8.344e-7
0.297, 8.480e-7
0.296, 8.615e-7
0.295, 8.752e-7
0.294, 8.894e-7
0.293, 9.035e-7
0.292, 9.209e-7
0.291, 9.331e-7
0.290, 9.508e-7
0.289, 9.694e-7
0.288, 9.853e-7
0.287, 1.004e-6
0.286, 1.022e-6
0.285, 1.039e-6
0.284, 1.061e-6
0.283, 1.080e-6
0.282, 1.099e-6
0.281, 1.122e-6
0.280, 1.143e-6
0.279, 1.167e-6
0.278, 1.188e-6
0.277, 1.213e-6
0.276, 1.240e-6
0.275, 1.262e-6
0.274, 1.289e-6
0.273, 1.318e-6
0.272, 1.342e-6
0.271, 1.373e-6
0.270, 1.402e-6
0.269, 1.429e-6
0.268, 1.463e-6
0.267, 1.492e-6
0.266, 1.524e-6
0.265, 1.559e-6
0.264, 1.593e-6
0.263, 1.629e-6
0.262, 1.662e-6
0.261, 1.700e-6
0.260, 1.739e-6
0.259, 1.773e-6
0.258, 1.815e-6
0.257, 1.857e-6
0.256, 1.893e-6
0.255, 1.938e-6
0.254, 1.978e-6
0.253, 2.019e-6
0.252, 2.068e-6
0.251, 2.109e-6
0.250, 2.156e-6
0.249, 2.205e-6
0.248, 2.249e-6
0.247, 2.299e-6
0.246, 2.345e-6
0.245, 2.396e-6
0.244, 2.449e-6
0.243, 2.492e-6
0.242, 2.547e-6
0.241, 2.600e-6
0.240, 2.649e-6
0.239, 2.705e-6
0.238, 2.756e-6
0.237, 2.810e-6
0.236, 2.867e-6
0.235, 2.917e-6
0.234, 2.972e-6
0.233, 3.028e-6
0.232, 3.082e-6
0.231, 3.138e-6
0.230, 3.187e-6
0.229, 3.242e-6
0.228, 3.302e-6
0.227, 3.348e-6
0.226, 3.407e-6
0.225, 3.461e-6
0.224, 3.512e-6
0.223, 3.570e-6
0.222, 3.618e-6
0.221, 3.668e-6
0.220, 3.725e-6
0.219, 3.771e-6
0.218, 3.819e-6
0.217, 3.870e-6
0.216, 3.916e-6
0.215, 3.966e-6
0.214, 4.007e-6
0.213, 4.055e-6
0.212, 4.101e-6
0.211, 4.140e-6
0.210, 4.183e-6
0.209, 4.224e-6
0.208, 4.258e-6
0.207, 4.299e-6
0.206, 4.336e-6
0.205, 4.370e-6
0.204, 4.407e-6
0.203, 4.432e-6
0.202, 4.463e-6
0.201, 4.492e-6
0.200, 4.517e-6
0.199, 4.547e-6
0.198, 4.568e-6
0.197, 4.591e-6
0.196, 4.615e-6
0.195, 4.628e-6
0.194, 4.651e-6
0.193, 4.668e-6
0.192, 4.678e-6
0.191, 4.695e-6
0.190, 4.705e-6
0.189, 4.714e-6
0.188, 4.729e-6
0.187, 4.733e-6
0.186, 4.742e-6
0.185, 4.748e-6
0.184, 4.751e-6
0.183, 4.757e-6
0.182, 4.753e-6
0.181, 4.757e-6
0.180, 4.761e-6
0.179, 4.750e-6
0.178, 4.751e-6
0.177, 4.750e-6
0.176, 4.741e-6
0.175, 4.739e-6
0.174, 4.733e-6
0.173, 4.725e-6
0.172, 4.720e-6
0.171, 4.707e-6
0.170, 4.699e-6
0.169, 4.689e-6
0.168, 4.680e-6
0.167, 4.669e-6
0.166, 4.655e-6
0.165, 4.643e-6
0.164, 4.632e-6
0.163, 4.615e-6
0.162, 4.604e-6
0.161, 4.591e-6
0.160, 4.575e-6
0.159, 4.562e-6
0.158, 4.545e-6
0.157, 4.529e-6
0.156, 4.517e-6
0.155, 4.499e-6
0.154, 4.483e-6
0.153, 4.468e-6
0.152, 4.450e-6
0.151, 4.435e-6
0.150, 4.417e-6
0.149, 4.401e-6
0.148, 4.387e-6
0.147, 4.367e-6
0.146, 4.351e-6
0.145, 4.336e-6
0.144, 4.316e-6
0.143, 4.302e-6
0.142, 4.285e-6
0.141, 4.266e-6
0.140, 4.253e-6
0.139, 4.233e-6
0.138, 4.217e-6
0.137, 4.202e-6
0.136, 4.185e-6
0.135, 4.170e-6
0.134, 4.153e-6
0.133, 4.136e-6
0.132, 4.122e-6
0.131, 4.103e-6
0.130, 4.089e-6
0.129, 4.074e-6
0.128, 4.056e-6
0.127, 4.042e-6
0.126, 4.026e-6
0.125, 4.010e-6
0.124, 3.998e-6
0.123, 3.980e-6
0.122, 3.966e-6
0.121, 3.952e-6
0.120, 3.937e-6
0.119, 3.923e-6
0.118, 3.907e-6
0.117, 3.894e-6
0.116, 3.882e-6
0.115, 3.864e-6
0.114, 3.851e-6
0.113, 3.839e-6
0.112, 3.823e-6
0.111, 3.812e-6
0.110, 3.798e-6
0.109, 3.785e-6
0.108, 3.773e-6
0.107, 3.758e-6
0.106, 3.745e-6
0.105, 3.734e-6
0.104, 3.720e-6
0.103, 3.709e-6
0.102, 3.696e-6
0.101, 3.683e-6
0.100, 3.673e-6
0.099, 3.659e-6
0.098, 3.648e-6
0.097, 3.637e-6
0.096, 3.624e-6
0.095, 3.614e-6
0.094, 3.602e-6
0.093, 3.590e-6
0.092, 3.581e-6
0.091, 3.569e-6
0.090, 3.557e-6
0.089, 3.548e-6
0.088, 3.536e-6
0.087, 3.526e-6
0.086, 3.516e-6
0.085, 3.506e-6
0.084, 3.497e-6
0.083, 3.485e-6
0.082, 3.476e-6
0.081, 3.467e-6
0.080, 3.455e-6
0.079, 3.447e-6
0.078, 3.438e-6
0.077, 3.427e-6
0.076, 3.420e-6
0.075, 3.409e-6
0.074, 3.400e-6
0.073, 3.392e-6
0.072, 3.383e-6
0.071, 3.374e-6
0.070, 3.366e-6
0.069, 3.357e-6
0.068, 3.350e-6
0.067, 3.339e-6
0.066, 3.332e-6
0.065, 3.325e-6
0.064, 3.315e-6
0.063, 3.309e-6
0.062, 3.300e-6
0.061, 3.292e-6
0.060, 3.286e-6
0.059, 3.277e-6
0.058, 3.270e-6
0.057, 3.264e-6
0.056, 3.255e-6
0.055, 3.249e-6
0.054, 3.242e-6
0.053, 3.235e-6
0.052, 3.229e-6
0.051, 3.220e-6
0.050, 3.214e-6
0.049, 3.208e-6
0.048, 3.200e-6
0.047, 3.195e-6
0.046, 3.189e-6
0.045, 3.182e-6
0.044, 3.177e-6
0.043, 3.170e-6
0.042, 3.164e-6
0.041, 3.159e-6
0.040, 3.152e-6
0.039, 3.147e-6
0.038, 3.141e-6
0.037, 3.135e-6
0.036, 3.131e-6
0.035, 3.123e-6
0.034, 3.119e-6
0.033, 3.115e-6
0.032, 3.108e-6
0.031, 3.104e-6
0.030, 3.099e-6
0.029, 3.093e-6
0.028, 3.090e-6
0.027, 3.084e-6
0.026, 3.079e-6
0.025, 3.075e-6
0.024, 3.070e-6
0.023, 3.066e-6
0.022, 3.061e-6
0.021, 3.056e-6
0.020, 3.054e-6
0.019, 3.048e-6
0.018, 3.044e-6
0.017, 3.041e-6
0.016, 3.035e-6
0.015, 3.032e-6
0.014, 3.029e-6
0.013, 3.023e-6
0.012, 3.022e-6
0.011, 3.016e-6
0.010, 3.012e-6
0.009, 3.010e-6
0.008, 3.006e-6
0.007, 3.003e-6
0.006, 3.000e-6
0.005, 2.996e-6
0.004, 2.994e-6
0.003, 2.989e-6
0.002, 2.987e-6
0.001, 2.985e-6
0.000, 2.983e-6
-0.001, 2.979e-6
-0.002, 2.976e-6
-0.003, 2.972e-6
-0.004, 2.971e-6
-0.005, 2.967e-6
-0.006, 2.964e-6
-0.007, 2.963e-6
-0.008, 2.959e-6
-0.009, 2.957e-6
-0.010, 2.955e-6
-0.011, 2.952e-6
-0.012, 2.951e-6
-0.013, 2.947e-6
-0.014, 2.945e-6
-0.015, 2.945e-6
-0.016, 2.941e-6
-0.017, 2.940e-6
-0.018, 2.939e-6
-0.019, 2.936e-6
-0.020, 2.936e-6
-0.021, 2.933e-6
-0.022, 2.931e-6
-0.023, 2.931e-6
-0.024, 2.928e-6
-0.025, 2.927e-6
-0.026, 2.926e-6
-0.027, 2.923e-6
-0.028, 2.924e-6
-0.029, 2.921e-6
-0.030, 2.921e-6
-0.031, 2.920e-6
-0.032, 2.919e-6
-0.033, 2.918e-6
-0.034, 2.918e-6
-0.035, 2.915e-6
-0.036, 2.917e-6
-0.037, 2.915e-6
-0.038, 2.913e-6
-0.039, 2.914e-6
-0.040, 2.913e-6
-0.041, 2.913e-6
-0.042, 2.912e-6
-0.043, 2.912e-6
-0.044, 2.913e-6
-0.045, 2.911e-6
-0.046, 2.912e-6
-0.047, 2.913e-6
-0.048, 2.911e-6
-0.049, 2.913e-6
-0.050, 2.913e-6
-0.051, 2.912e-6
-0.052, 2.914e-6
-0.053, 2.913e-6
-0.054, 2.913e-6
-0.055, 2.915e-6
-0.056, 2.915e-6
-0.057, 2.916e-6
-0.058, 2.917e-6
-0.059, 2.917e-6
-0.060, 2.920e-6
-0.061, 2.918e-6
-0.062, 2.920e-6
-0.063, 2.922e-6
-0.064, 2.922e-6
-0.065, 2.924e-6
-0.066, 2.926e-6
-0.067, 2.926e-6
-0.068, 2.929e-6
-0.069, 2.929e-6
-0.070, 2.931e-6
-0.071, 2.934e-6
-0.072, 2.935e-6
-0.073, 2.937e-6
-0.074, 2.939e-6
-0.075, 2.940e-6
-0.076, 2.944e-6
-0.077, 2.943e-6
-0.078, 2.947e-6
-0.079, 2.950e-6
-0.080, 2.951e-6
-0.081, 2.955e-6
-0.082, 2.957e-6
-0.083, 2.959e-6
-0.084, 2.963e-6
-0.085, 2.964e-6
-0.086, 2.967e-6
-0.087, 2.971e-6
-0.088, 2.973e-6
-0.089, 2.977e-6
-0.090, 2.979e-6
-0.091, 2.983e-6
-0.092, 2.987e-6
-0.093, 2.989e-6
-0.094, 2.993e-6
-0.095, 2.998e-6
-0.096, 3.000e-6
-0.097, 3.005e-6
-0.098, 3.008e-6
-0.099, 3.012e-6
-0.100, 2.879e-6
-0.099, 2.746e-6
-0.098, 2.684e-6
-0.097, 2.632e-6
-0.096, 2.590e-6
-0.095, 2.549e-6
-0.094, 2.510e-6
-0.093, 2.478e-6
-0.092, 2.444e-6
-0.091, 2.413e-6
-0.090, 2.384e-6
-0.089, 2.354e-6
-0.088, 2.328e-6
-0.087, 2.302e-6
-0.086, 2.275e-6
-0.085, 2.252e-6
-0.084, 2.227e-6
-0.083, 2.205e-6
-0.082, 2.183e-6
-0.081, 2.160e-6
-0.080, 2.141e-6
-0.079, 2.120e-6
-0.078, 2.099e-6
-0.077, 2.082e-6
-0.076, 2.061e-6
-0.075, 2.043e-6
-0.074, 2.026e-6
-0.073, 2.007e-6
-0.072, 1.991e-6
-0.071, 1.974e-6
-0.070, 1.956e-6
-0.069, 1.941e-6
-0.068, 1.924e-6
-0.067, 1.910e-6
-0.066, 1.895e-6
-0.065, 1.878e-6
-0.064, 1.866e-6
-0.063, 1.850e-6
-0.062, 1.835e-6
-0.061, 1.823e-6
-0.060, 1.808e-6
-0.059, 1.795e-6
-0.058, 1.783e-6
-0.057, 1.768e-6
-0.056, 1.757e-6
-0.055, 1.744e-6
-0.054, 1.731e-6
-0.053, 1.720e-6
-0.052, 1.707e-6
-0.051, 1.696e-6
-0.050, 1.684e-6
-0.049, 1.672e-6
-0.048, 1.662e-6
-0.047, 1.651e-6
-0.046, 1.639e-6
-0.045, 1.629e-6
-0.044, 1.618e-6
-0.043, 1.608e-6
-0.042, 1.598e-6
-0.041, 1.586e-6
-0.040, 1.578e-6
-0.039, 1.568e-6
-0.038, 1.557e-6
-0.037, 1.548e-6
-0.036, 1.538e-6
-0.035, 1.529e-6
-0.034, 1.520e-6
-0.033, 1.510e-6
-0.032, 1.502e-6
-0.031, 1.492e-6
-0.030, 1.482e-6
-0.029, 1.475e-6
-0.028, 1.465e-6
-0.027, 1.457e-6
-0.026, 1.450e-6
-0.025, 1.439e-6
-0.024, 1.432e-6
-0.023, 1.424e-6
-0.022, 1.415e-6
-0.021, 1.408e-6
-0.020, 1.399e-6
-0.019, 1.392e-6
-0.018, 1.384e-6
-0.017, 1.375e-6
-0.016, 1.369e-6
-0.015, 1.361e-6
-0.014, 1.352e-6
-0.013, 1.347e-6
-0.012, 1.338e-6
-0.011, 1.331e-6
-0.010, 1.324e-6
-0.009, 1.315e-6
-0.008, 1.310e-6
-0.007, 1.302e-6
-0.006, 1.294e-6
-0.005, 1.288e-6
-0.004, 1.281e-6
-0.003, 1.274e-6
-0.002, 1.268e-6
-0.001, 1.259e-6
-0.000, 1.252e-6
0.001, 1.246e-6
0.002, 1.239e-6
0.003, 1.234e-6
0.004, 1.226e-6
0.005, 1.220e-6
0.006, 1.214e-6
0.007, 1.206e-6
0.008, 1.201e-6
0.009, 1.195e-6
0.010, 1.187e-6
0.011, 1.182e-6
0.012, 1.175e-6
0.013, 1.169e-6
0.014, 1.163e-6
0.015, 1.155e-6
0.016, 1.152e-6
0.017, 1.144e-6
0.018, 1.137e-6
0.019, 1.132e-6
0.020, 1.125e-6
0.021, 1.119e-6
0.022, 1.114e-6
0.023, 1.106e-6
0.024, 1.102e-6
0.025, 1.096e-6
0.026, 1.089e-6
0.027, 1.083e-6
0.028, 1.077e-6
0.029, 1.071e-6
0.030, 1.066e-6
0.031, 1.058e-6
0.032, 1.054e-6
0.033, 1.048e-6
0.034, 1.040e-6
0.035, 1.036e-6
0.036, 1.029e-6
0.037, 1.024e-6
0.038, 1.018e-6
0.039, 1.010e-6
0.040, 1.005e-6
0.041, 9.998e-7
0.042, 9.925e-7
0.043, 9.875e-7
0.044, 9.806e-7
0.045, 9.748e-7
0.046, 9.691e-7
0.047, 9.610e-7
0.048, 9.575e-7
0.049, 9.509e-7
0.050, 9.431e-7
0.051, 9.388e-7
0.052, 9.311e-7
0.053, 9.249e-7
0.054, 9.196e-7
0.055, 9.116e-7
0.056, 9.067e-7
0.057, 9.002e-7
0.058, 8.926e-7
0.059, 8.868e-7
0.060, 8.796e-7
0.061, 8.743e-7
0.062, 8.674e-7
0.063, 8.593e-7
0.064, 8.550e-7
0.065, 8.474e-7
0.066, 8.393e-7
0.067, 8.344e-7
0.068, 8.260e-7
0.069, 8.196e-7
0.070, 8.129e-7
0.071, 8.043e-7
0.072, 7.987e-7
0.073, 7.917e-7
0.074, 7.829e-7
0.075, 7.772e-7
0.076, 7.684e-7
0.077, 7.627e-7
0.078, 7.545e-7
0.079, 7.455e-7
0.080, 7.398e-7
0.081, 7.313e-7
0.082, 7.224e-7
0.083, 7.156e-7
0.084, 7.065e-7
0.085, 6.986e-7
0.086, 6.917e-7
0.087, 6.812e-7
0.088, 6.747e-7
0.089, 6.662e-7
0.090, 6.564e-7
0.091, 6.485e-7
0.092, 6.388e-7
0.093, 6.309e-7
0.094, 6.217e-7
0.095, 6.112e-7
0.096, 6.033e-7
0.097, 5.936e-7
0.098, 5.826e-7
0.099, 5.753e-7
0.100, 5.636e-7
0.101, 5.544e-7
0.102, 5.444e-7
0.103, 5.324e-7
0.104, 5.235e-7
0.105, 5.127e-7
0.106, 5.010e-7
0.107, 4.916e-7
0.108, 4.788e-7
0.109, 4.685e-7
0.110, 4.571e-7
0.111, 4.439e-7
0.112, 4.348e-7
0.113, 4.219e-7
0.114, 4.084e-7
0.115, 3.981e-7
0.116, 3.836e-7
0.117, 3.710e-7
0.118, 3.591e-7
0.119, 3.435e-7
0.120, 3.321e-7
0.121, 3.175e-7
0.122, 3.019e-7
0.123, 2.885e-7
0.124, 2.729e-7
0.125, 2.597e-7
0.126, 2.439e-7
0.127, 2.262e-7
0.128, 2.140e-7
0.129, 1.956e-7
0.130, 1.771e-7
0.131, 1.626e-7
0.132, 1.429e-7
0.133, 1.267e-7
0.134, 1.084e-7
0.135, 8.768e-8
0.136, 7.048e-8
0.137, 5.121e-8
0.138, 3.008e-8
0.139, 1.135e-8
0.140, -1.162e-8
0.141, -3.045e-8
0.142, -5.355e-8
0.143, -7.798e-8
0.144, -9.734e-8
0.145, -1.228e-7
0.146, -1.477e-7
0.147, -1.705e-7
0.148, -1.979e-7
0.149, -2.224e-7
0.150, -2.478e-7
0.151, -2.776e-7
0.152, -3.022e-7
0.153, -3.316e-7
0.154, -3.618e-7
0.155, -3.914e-7
0.156, -4.233e-7
0.157, -4.516e-7
0.158, -4.848e-7
0.159, -5.193e-7
0.160, -5.498e-7
0.161, -5.864e-7
0.162, -6.219e-7
0.163, -6.546e-7
0.164, -6.945e-7
0.165, -7.289e-7
0.166, -7.658e-7
0.167, -8.085e-7
0.168, -8.462e-7
0.169, -8.866e-7
0.170, -9.291e-7
0.171, -9.697e-7
0.172, -1.016e-6
0.173, -1.057e-6
0.174, -1.102e-6
0.175, -1.150e-6
0.176, -1.190e-6
0.177, -1.239e-6
0.178, -1.288e-6
0.179, -1.331e-6
0.180, -1.384e-6
0.181, -1.433e-6
0.182, -1.482e-6
0.183, -1.535e-6
0.184, -1.584e-6
0.185, -1.637e-6
0.186, -1.691e-6
0.187, -1.742e-6
0.188, -1.799e-6
0.189, -1.846e-6
0.190, -1.902e-6
0.191, -1.960e-6
0.192, -2.006e-6
0.193, -2.066e-6
0.194, -2.123e-6
0.195, -2.172e-6
0.196, -2.231e-6
0.197, -2.282e-6
0.198, -2.338e-6
0.199, -2.395e-6
0.200, -2.444e-6
0.201, -2.500e-6
0.202, -2.553e-6
0.203, -2.604e-6
0.204, -2.661e-6
0.205, -2.711e-6
0.206, -2.762e-6
0.207, -2.818e-6
0.208, -2.859e-6
0.209, -2.912e-6
0.210, -2.960e-6
0.211, -3.004e-6
0.212, -3.054e-6
0.213, -3.096e-6
0.214, -3.138e-6
0.215, -3.182e-6
0.216, -3.221e-6
0.217, -3.260e-6
0.218, -3.300e-6
0.219, -3.336e-6
0.220, -3.375e-6
0.221, -3.404e-6
0.222, -3.439e-6
0.223, -3.474e-6
0.224, -3.499e-6
0.225, -3.530e-6
0.226, -3.558e-6
0.227, -3.577e-6
0.228, -3.606e-6
0.229, -3.624e-6
0.230, -3.642e-6
0.231, -3.665e-6
0.232, -3.681e-6
0.233, -3.698e-6
0.234, -3.713e-6
0.235, -3.724e-6
0.236, -3.739e-6
0.237, -3.747e-6
0.238, -3.755e-6
0.239, -3.766e-6
0.240, -3.765e-6
0.241, -3.772e-6
0.242, -3.777e-6
0.243, -3.773e-6
0.244, -3.779e-6
0.245, -3.776e-6
0.246, -3.773e-6
0.247, -3.773e-6
0.248, -3.765e-6
0.249, -3.762e-6
0.250, -3.757e-6
0.251, -3.748e-6
0.252, -3.743e-6
0.253, -3.730e-6
0.254, -3.721e-6
0.255, -3.714e-6
0.256, -3.698e-6
0.257, -3.688e-6
0.258, -3.678e-6
0.259, -3.661e-6
0.260, -3.651e-6
0.261, -3.634e-6
0.262, -3.619e-6
0.263, -3.607e-6
0.264, -3.589e-6
0.265, -3.572e-6
0.266, -3.557e-6
0.267, -3.538e-6
0.268, -3.523e-6
0.269, -3.501e-6
0.270, -3.485e-6
0.271, -3.470e-6
0.272, -3.447e-6
0.273, -3.431e-6
0.274, -3.414e-6
0.275, -3.393e-6
0.276, -3.376e-6
0.277, -3.356e-6
0.278, -3.336e-6
0.279, -3.320e-6
0.280, -3.298e-6
0.281, -3.279e-6
0.282, -3.261e-6
0.283, -3.242e-6
0.284, -3.224e-6
0.285, -3.203e-6
0.286, -3.184e-6
0.287, -3.168e-6
0.288, -3.148e-6
0.289, -3.129e-6
0.290, -3.113e-6
0.291, -3.091e-6
0.292, -3.075e-6
0.293, -3.056e-6
0.294, -3.037e-6
0.295, -3.021e-6
0.296, -3.002e-6
0.297, -2.984e-6
0.298, -2.969e-6
0.299, -2.950e-6
0.300, -2.935e-6
0.301, -2.917e-6
0.302, -2.900e-6
0.303, -2.885e-6
0.304, -2.866e-6
0.305, -2.851e-6
0.306, -2.836e-6
0.307, -2.819e-6
0.308, -2.805e-6
0.309, -2.789e-6
0.310, -2.773e-6
0.311, -2.760e-6
0.312, -2.744e-6
0.313, -2.729e-6
0.314, -2.716e-6
0.315, -2.701e-6
0.316, -2.688e-6
0.317, -2.673e-6
0.318, -2.659e-6
0.319, -2.647e-6
0.320, -2.631e-6
0.321, -2.619e-6
0.322, -2.608e-6
0.323, -2.593e-6
0.324, -2.582e-6
0.325, -2.569e-6
0.326, -2.556e-6
0.327, -2.546e-6
0.328, -2.532e-6
0.329, -2.520e-6
0.330, -2.510e-6
0.331, -2.497e-6
0.332, -2.487e-6
0.333, -2.474e-6
0.334, -2.464e-6
0.335, -2.455e-6
0.336, -2.442e-6
0.337, -2.433e-6
0.338, -2.423e-6
0.339, -2.411e-6
0.340, -2.403e-6
0.341, -2.393e-6
0.342, -2.382e-6
0.343, -2.374e-6
0.344, -2.363e-6
0.345, -2.354e-6
0.346, -2.345e-6
0.347, -2.336e-6
0.348, -2.328e-6
0.349, -2.317e-6
0.350, -2.309e-6
0.351, -2.302e-6
0.352, -2.292e-6
0.353, -2.284e-6
0.354, -2.277e-6
0.355, -2.266e-6
0.356, -2.260e-6
0.357, -2.252e-6
0.358, -2.243e-6
0.359, -2.237e-6
0.360, -2.228e-6
0.361, -2.221e-6
0.362, -2.215e-6
0.363, -2.206e-6
0.364, -2.200e-6
0.365, -2.192e-6
0.366, -2.185e-6
0.367, -2.180e-6
0.368, -2.170e-6
0.369, -2.165e-6
0.370, -2.159e-6
0.371, -2.151e-6
0.372, -2.146e-6
0.373, -2.139e-6
0.374, -2.132e-6
0.375, -2.127e-6
0.376, -2.119e-6
0.377, -2.114e-6
0.378, -2.109e-6
0.379, -2.102e-6
0.380, -2.097e-6
0.381, -2.090e-6
0.382, -2.084e-6
0.383, -2.080e-6
0.384, -2.072e-6
0.385, -2.068e-6
0.386, -2.063e-6
0.387, -2.056e-6
0.388, -2.052e-6
0.389, -2.046e-6
0.390, -2.042e-6
0.391, -2.037e-6
0.392, -2.031e-6
0.393, -2.025e-6
0.394, -2.022e-6
0.395, -2.016e-6
0.396, -2.012e-6
0.397, -2.006e-6
0.398, -2.002e-6
0.399, -1.999e-6
0.400, -1.992e-6
0.401, -1.988e-6
0.402, -1.985e-6
0.403, -1.979e-6
0.404, -1.976e-6
0.405, -1.971e-6
0.406, -1.966e-6
0.407, -1.964e-6
0.408, -1.958e-6
0.409, -1.956e-6
0.410, -1.952e-6
0.411, -1.947e-6
0.412, -1.944e-6
0.413, -1.939e-6
0.414, -1.935e-6
0.415, -1.933e-6
0.416, -1.927e-6
0.417, -1.924e-6
0.418, -1.922e-6
0.419, -1.916e-6
0.420, -1.914e-6
0.421, -1.910e-6
0.422, -1.906e-6
0.423, -1.904e-6
0.424, -1.900e-6
0.425, -1.896e-6
0.426, -1.895e-6
0.427, -1.890e-6
0.428, -1.888e-6
0.429, -1.884e-6
0.430, -1.881e-6
0.431, -1.879e-6
0.432, -1.874e-6
0.433, -1.872e-6
0.434, -1.870e-6
0.435, -1.865e-6
0.436, -1.864e-6
0.437, -1.861e-6
0.438, -1.858e-6
0.439, -1.856e-6
0.440, -1.852e-6
0.441, -1.850e-6
0.442, -1.849e-6
0.443, -1.845e-6
0.444, -1.843e-6
0.445, -1.840e-6
0.446, -1.838e-6
0.447, -1.837e-6
0.448, -1.832e-6
0.449, -1.832e-6
0.450, -1.830e-6
0.451, -1.826e-6
0.452, -1.826e-6
0.453, -1.823e-6
0.454, -1.821e-6
0.455, -1.820e-6
0.456, -1.817e-6
0.457, -1.815e-6
0.458, -1.814e-6
0.459, -1.811e-6
0.460, -1.810e-6
0.461, -1.808e-6
0.462, -1.807e-6
0.463, -1.806e-6
0.464, -1.802e-6
0.465, -1.802e-6
0.466, -1.801e-6
0.467, -1.798e-6
0.468, -1.798e-6
0.469, -1.796e-6
0.470, -1.794e-6
0.471, -1.794e-6
0.472, -1.791e-6
0.473, -1.790e-6
0.474, -1.790e-6
0.475, -1.788e-6
0.476, -1.788e-6
0.477, -1.786e-6
0.478, -1.785e-6
0.479, -1.785e-6
0.480, -1.783e-6
0.481, -1.782e-6
0.482, -1.783e-6
0.483, -1.780e-6
0.484, -1.781e-6
0.485, -1.779e-6
0.486, -1.777e-6
0.487, -1.779e-6
0.488, -1.777e-6
0.489, -1.776e-6
0.490, -1.777e-6
0.491, -1.775e-6
0.492, -1.776e-6
0.493, -1.774e-6
0.494, -1.774e-6
0.495, -1.775e-6
0.496, -1.772e-6
0.497, -1.773e-6
0.498, -1.774e-6
0.499, -1.771e-6
