Apr. 7, 2019   11:35:56
Cyclic Voltammetry
File: D:\process\data\cv6.bin.txt
Data Source:  Experiment
Instrument Model:  CHI900D
Header: 
Note: 

Init E (V) = 0.5
High E (V) = 0.5
Low E (V) = -0.1
Init P/N = N
Scan Rate (V/s) = 0.5
Segment = 2
Sample Interval (V) = 0.001
Quiet Time (sec) = 10
Sensitivity (A/V) = 1e-5

Segment 1:
Segment 2:

Potential/V, Current/A

0.500, -1.256e-7
0.499, 1.571e-7
0.498, 2.339e-7
0.497, 2.738e-7
0.496, 3.107e-7
0.495, 3.507e-7
0.494, 3.783e-7
0.493, 4.060e-7
0.492, 4.367e-7
0.491, 4.582e-7
0.490, 4.859e-7
0.489, 5.043e-7
0.488, 5.227e-7
0.487, 5.473e-7
0.486, 5.596e-7
0.485, 5.842e-7
0.484, 6.026e-7
0.483, 6.088e-7
0.482, 6.333e-7
0.481, 6.518e-7
0.480, 6.641e-7
0.479, 6.856e-7
0.478, 6.917e-7
0.477, 7.071e-7
0.476, 7.224e-7
0.475, 7.378e-7
0.474, 7.532e-7
0.473, 7.593e-7
0.472, 7.716e-7
0.471, 7.870e-7
0.470, 7.993e-7
0.469, 8.146e-7
0.468, 8.238e-7
0.467, 8.331e-7
0.466, 8.484e-7
0.465, 8.576e-7
0.464, 8.669e-7
0.463, 8.791e-7
0.462, 8.884e-7
0.461, 9.007e-7
0.460, 9.099e-7
0.459, 9.160e-7
0.458, 9.314e-7
0.457, 9.344e-7
0.456, 9.498e-7
0.455, 9.590e-7
0.454, 9.621e-7
0.453, 9.744e-7
0.452, 9.867e-7
0.451, 9.898e-7
0.450, 1.008e-6
0.449, 1.011e-6
0.448, 1.011e-6
0.447, 1.030e-6
0.446, 1.036e-6
0.445, 1.045e-6
0.444, 1.054e-6
0.443, 1.057e-6
0.442, 1.070e-6
0.441, 1.079e-6
0.440, 1.085e-6
0.439, 1.097e-6
0.438, 1.097e-6
0.437, 1.107e-6
0.436, 1.119e-6
0.435, 1.116e-6
0.434, 1.134e-6
0.433, 1.137e-6
0.432, 1.140e-6
0.431, 1.156e-6
0.430, 1.159e-6
0.429, 1.168e-6
0.428, 1.177e-6
0.427, 1.177e-6
0.426, 1.193e-6
0.425, 1.193e-6
0.424, 1.205e-6
0.423, 1.214e-6
0.422, 1.214e-6
0.421, 1.226e-6
0.420, 1.229e-6
0.419, 1.232e-6
0.418, 1.248e-6
0.417, 1.251e-6
0.416, 1.257e-6
0.415, 1.269e-6
0.414, 1.266e-6
0.413, 1.279e-6
0.412, 1.285e-6
0.411, 1.294e-6
0.410, 1.303e-6
0.409, 1.309e-6
0.408, 1.309e-6
0.407, 1.322e-6
0.406, 1.325e-6
0.405, 1.334e-6
0.404, 1.340e-6
0.403, 1.340e-6
0.402, 1.352e-6
0.401, 1.358e-6
0.400, 1.362e-6
0.399, 1.374e-6
0.398, 1.374e-6
0.397, 1.383e-6
0.396, 1.392e-6
0.395, 1.395e-6
0.394, 1.405e-6
0.393, 1.408e-6
0.392, 1.414e-6
0.391, 1.426e-6
0.390, 1.429e-6
0.389, 1.435e-6
0.388, 1.441e-6
0.387, 1.448e-6
0.386, 1.460e-6
0.385, 1.463e-6
0.384, 1.463e-6
0.383, 1.478e-6
0.382, 1.478e-6
0.381, 1.488e-6
0.380, 1.497e-6
0.379, 1.500e-6
0.378, 1.512e-6
0.377, 1.515e-6
0.376, 1.524e-6
0.375, 1.534e-6
0.374, 1.531e-6
0.373, 1.543e-6
0.372, 1.552e-6
0.371, 1.555e-6
0.370, 1.567e-6
0.369, 1.570e-6
0.368, 1.577e-6
0.367, 1.589e-6
0.366, 1.595e-6
0.365, 1.601e-6
0.364, 1.610e-6
0.363, 1.613e-6
0.362, 1.626e-6
0.361, 1.632e-6
0.360, 1.641e-6
0.359, 1.653e-6
0.358, 1.653e-6
0.357, 1.663e-6
0.356, 1.675e-6
0.355, 1.675e-6
0.354, 1.693e-6
0.353, 1.700e-6
0.352, 1.706e-6
0.351, 1.718e-6
0.350, 1.721e-6
0.349, 1.733e-6
0.348, 1.743e-6
0.347, 1.752e-6
0.346, 1.764e-6
0.345, 1.764e-6
0.344, 1.779e-6
0.343, 1.792e-6
0.342, 1.798e-6
0.341, 1.810e-6
0.340, 1.822e-6
0.339, 1.825e-6
0.338, 1.844e-6
0.337, 1.853e-6
0.336, 1.862e-6
0.335, 1.878e-6
0.334, 1.884e-6
0.333, 1.896e-6
0.332, 1.912e-6
0.331, 1.921e-6
0.330, 1.936e-6
0.329, 1.948e-6
0.328, 1.958e-6
0.327, 1.979e-6
0.326, 1.985e-6
0.325, 2.004e-6
0.324, 2.019e-6
0.323, 2.028e-6
0.322, 2.050e-6
0.321, 2.062e-6
0.320, 2.074e-6
0.319, 2.099e-6
0.318, 2.111e-6
0.317, 2.127e-6
0.316, 2.145e-6
0.315, 2.163e-6
0.314, 2.188e-6
0.313, 2.206e-6
0.312, 2.222e-6
0.311, 2.246e-6
0.310, 2.259e-6
0.309, 2.286e-6
0.308, 2.311e-6
0.307, 2.326e-6
0.306, 2.354e-6
0.305, 2.372e-6
0.304, 2.397e-6
0.303, 2.431e-6
0.302, 2.452e-6
0.301, 2.477e-6
0.300, 2.508e-6
0.299, 2.529e-6
0.298, 2.569e-6
0.297, 2.591e-6
0.296, 2.621e-6
0.295, 2.658e-6
0.294, 2.680e-6
0.293, 2.723e-6
0.292, 2.760e-6
0.291, 2.787e-6
0.290, 2.830e-6
0.289, 2.864e-6
0.288, 2.904e-6
0.287, 2.947e-6
0.286, 2.984e-6
0.285, 3.030e-6
0.284, 3.073e-6
0.283, 3.113e-6
0.282, 3.165e-6
0.281, 3.205e-6
0.280, 3.257e-6
0.279, 3.313e-6
0.278, 3.359e-6
0.277, 3.411e-6
0.276, 3.466e-6
0.275, 3.522e-6
0.274, 3.589e-6
0.273, 3.641e-6
0.272, 3.700e-6
0.271, 3.764e-6
0.270, 3.829e-6
0.269, 3.896e-6
0.268, 3.964e-6
0.267, 4.029e-6
0.266, 4.105e-6
0.265, 4.173e-6
0.264, 4.250e-6
0.263, 4.336e-6
0.262, 4.400e-6
0.261, 4.486e-6
0.260, 4.569e-6
0.259, 4.643e-6
0.258, 4.741e-6
0.257, 4.827e-6
0.256, 4.910e-6
0.255, 5.006e-6
0.254, 5.092e-6
0.253, 5.190e-6
0.252, 5.285e-6
0.251, 5.380e-6
0.250, 5.494e-6
0.249, 5.586e-6
0.248, 5.691e-6
0.247, 5.798e-6
0.246, 5.897e-6
0.245, 6.013e-6
0.244, 6.124e-6
0.243, 6.219e-6
0.242, 6.339e-6
0.241, 6.450e-6
0.240, 6.566e-6
0.239, 6.686e-6
0.238, 6.797e-6
0.237, 6.914e-6
0.236, 7.037e-6
0.235, 7.150e-6
0.234, 7.282e-6
0.233, 7.390e-6
0.232, 7.510e-6
0.231, 7.636e-6
0.230, 7.743e-6
0.229, 7.872e-6
0.228, 7.998e-6
0.227, 8.100e-6
0.226, 8.232e-6
0.225, 8.349e-6
0.224, 8.465e-6
0.223, 8.591e-6
0.222, 8.696e-6
0.221, 8.819e-6
0.220, 8.929e-6
0.219, 9.037e-6
0.218, 9.160e-6
0.217, 9.252e-6
0.216, 9.369e-6
0.215, 9.476e-6
0.214, 9.562e-6
0.213, 9.679e-6
0.212, 9.774e-6
0.211, 9.869e-6
0.210, 9.971e-6
0.209, 1.005e-5
0.208, 1.014e-5
0.207, 1.023e-5
0.206, 1.031e-5
0.205, 1.040e-5
0.204, 1.048e-5
0.203, 1.054e-5
0.202, 1.061e-5
0.201, 1.067e-5
0.200, 1.074e-5
0.199, 1.081e-5
0.198, 1.086e-5
0.197, 1.091e-5
0.196, 1.096e-5
0.195, 1.100e-5
0.194, 1.106e-5
0.193, 1.109e-5
0.192, 1.112e-5
0.191, 1.117e-5
0.190, 1.119e-5
0.189, 1.122e-5
0.188, 1.125e-5
0.187, 1.126e-5
0.186, 1.129e-5
0.185, 1.130e-5
0.184, 1.132e-5
0.183, 1.133e-5
0.182, 1.133e-5
0.181, 1.134e-5
0.180, 1.135e-5
0.179, 1.133e-5
0.178, 1.134e-5
0.177, 1.134e-5
0.176, 1.133e-5
0.175, 1.132e-5
0.174, 1.131e-5
0.173, 1.130e-5
0.172, 1.128e-5
0.171, 1.127e-5
0.170, 1.126e-5
0.169, 1.123e-5
0.168, 1.121e-5
0.167, 1.119e-5
0.166, 1.116e-5
0.165, 1.114e-5
0.164, 1.112e-5
0.163, 1.108e-5
0.162, 1.106e-5
0.161, 1.103e-5
0.160, 1.100e-5
0.159, 1.098e-5
0.158, 1.094e-5
0.157, 1.090e-5
0.156, 1.088e-5
0.155, 1.085e-5
0.154, 1.082e-5
0.153, 1.077e-5
0.152, 1.074e-5
0.151, 1.071e-5
0.150, 1.067e-5
0.149, 1.064e-5
0.148, 1.060e-5
0.147, 1.056e-5
0.146, 1.053e-5
0.145, 1.049e-5
0.144, 1.046e-5
0.143, 1.043e-5
0.142, 1.039e-5
0.141, 1.035e-5
0.140, 1.032e-5
0.139, 1.027e-5
0.138, 1.025e-5
0.137, 1.020e-5
0.136, 1.017e-5
0.135, 1.014e-5
0.134, 1.010e-5
0.133, 1.007e-5
0.132, 1.004e-5
0.131, 9.992e-6
0.130, 9.968e-6
0.129, 9.931e-6
0.128, 9.888e-6
0.127, 9.860e-6
0.126, 9.826e-6
0.125, 9.793e-6
0.124, 9.762e-6
0.123, 9.722e-6
0.122, 9.694e-6
0.121, 9.667e-6
0.120, 9.630e-6
0.119, 9.602e-6
0.118, 9.562e-6
0.117, 9.535e-6
0.116, 9.510e-6
0.115, 9.470e-6
0.114, 9.445e-6
0.113, 9.412e-6
0.112, 9.378e-6
0.111, 9.356e-6
0.110, 9.326e-6
0.109, 9.298e-6
0.108, 9.267e-6
0.107, 9.240e-6
0.106, 9.215e-6
0.105, 9.181e-6
0.104, 9.157e-6
0.103, 9.132e-6
0.102, 9.101e-6
0.101, 9.074e-6
0.100, 9.049e-6
0.099, 9.015e-6
0.098, 8.997e-6
0.097, 8.969e-6
0.096, 8.945e-6
0.095, 8.923e-6
0.094, 8.889e-6
0.093, 8.868e-6
0.092, 8.846e-6
0.091, 8.819e-6
0.090, 8.800e-6
0.089, 8.769e-6
0.088, 8.745e-6
0.087, 8.726e-6
0.086, 8.702e-6
0.085, 8.680e-6
0.084, 8.659e-6
0.083, 8.628e-6
0.082, 8.613e-6
0.081, 8.591e-6
0.080, 8.567e-6
0.079, 8.545e-6
0.078, 8.524e-6
0.077, 8.502e-6
0.076, 8.484e-6
0.075, 8.459e-6
0.074, 8.441e-6
0.073, 8.419e-6
0.072, 8.401e-6
0.071, 8.385e-6
0.070, 8.361e-6
0.069, 8.345e-6
0.068, 8.324e-6
0.067, 8.302e-6
0.066, 8.290e-6
0.065, 8.269e-6
0.064, 8.247e-6
0.063, 8.235e-6
0.062, 8.210e-6
0.061, 8.198e-6
0.060, 8.180e-6
0.059, 8.158e-6
0.058, 8.149e-6
0.057, 8.130e-6
0.056, 8.112e-6
0.055, 8.100e-6
0.054, 8.075e-6
0.053, 8.066e-6
0.052, 8.051e-6
0.051, 8.029e-6
0.050, 8.020e-6
0.049, 7.998e-6
0.048, 7.983e-6
0.047, 7.974e-6
0.046, 7.955e-6
0.045, 7.943e-6
0.044, 7.928e-6
0.043, 7.909e-6
0.042, 7.900e-6
0.041, 7.885e-6
0.040, 7.872e-6
0.039, 7.863e-6
0.038, 7.839e-6
0.037, 7.829e-6
0.036, 7.823e-6
0.035, 7.802e-6
0.034, 7.795e-6
0.033, 7.783e-6
0.032, 7.768e-6
0.031, 7.762e-6
0.030, 7.743e-6
0.029, 7.731e-6
0.028, 7.725e-6
0.027, 7.709e-6
0.026, 7.703e-6
0.025, 7.685e-6
0.024, 7.676e-6
0.023, 7.666e-6
0.022, 7.651e-6
0.021, 7.648e-6
0.020, 7.636e-6
0.019, 7.623e-6
0.018, 7.617e-6
0.017, 7.608e-6
0.016, 7.596e-6
0.015, 7.587e-6
0.014, 7.571e-6
0.013, 7.565e-6
0.012, 7.562e-6
0.011, 7.550e-6
0.010, 7.540e-6
0.009, 7.528e-6
0.008, 7.522e-6
0.007, 7.519e-6
0.006, 7.507e-6
0.005, 7.504e-6
0.004, 7.491e-6
0.003, 7.479e-6
0.002, 7.479e-6
0.001, 7.470e-6
0.000, 7.470e-6
-0.001, 7.461e-6
-0.002, 7.448e-6
-0.003, 7.442e-6
-0.004, 7.436e-6
-0.005, 7.427e-6
-0.006, 7.424e-6
-0.007, 7.414e-6
-0.008, 7.408e-6
-0.009, 7.405e-6
-0.010, 7.393e-6
-0.011, 7.390e-6
-0.012, 7.387e-6
-0.013, 7.375e-6
-0.014, 7.375e-6
-0.015, 7.365e-6
-0.016, 7.359e-6
-0.017, 7.359e-6
-0.018, 7.350e-6
-0.019, 7.347e-6
-0.020, 7.341e-6
-0.021, 7.335e-6
-0.022, 7.335e-6
-0.023, 7.328e-6
-0.024, 7.325e-6
-0.025, 7.322e-6
-0.026, 7.310e-6
-0.027, 7.313e-6
-0.028, 7.310e-6
-0.029, 7.301e-6
-0.030, 7.301e-6
-0.031, 7.295e-6
-0.032, 7.292e-6
-0.033, 7.295e-6
-0.034, 7.289e-6
-0.035, 7.282e-6
-0.036, 7.282e-6
-0.037, 7.276e-6
-0.038, 7.276e-6
-0.039, 7.273e-6
-0.040, 7.270e-6
-0.041, 7.273e-6
-0.042, 7.264e-6
-0.043, 7.264e-6
-0.044, 7.264e-6
-0.045, 7.258e-6
-0.046, 7.264e-6
-0.047, 7.258e-6
-0.048, 7.252e-6
-0.049, 7.258e-6
-0.050, 7.252e-6
-0.051, 7.252e-6
-0.052, 7.252e-6
-0.053, 7.249e-6
-0.054, 7.249e-6
-0.055, 7.246e-6
-0.056, 7.249e-6
-0.057, 7.252e-6
-0.058, 7.249e-6
-0.059, 7.249e-6
-0.060, 7.249e-6
-0.061, 7.242e-6
-0.062, 7.252e-6
-0.063, 7.249e-6
-0.064, 7.246e-6
-0.065, 7.249e-6
-0.066, 7.246e-6
-0.067, 7.249e-6
-0.068, 7.255e-6
-0.069, 7.249e-6
-0.070, 7.255e-6
-0.071, 7.255e-6
-0.072, 7.255e-6
-0.073, 7.264e-6
-0.074, 7.255e-6
-0.075, 7.264e-6
-0.076, 7.264e-6
-0.077, 7.258e-6
-0.078, 7.270e-6
-0.079, 7.270e-6
-0.080, 7.270e-6
-0.081, 7.276e-6
-0.082, 7.276e-6
-0.083, 7.282e-6
-0.084, 7.282e-6
-0.085, 7.282e-6
-0.086, 7.292e-6
-0.087, 7.295e-6
-0.088, 7.295e-6
-0.089, 7.301e-6
-0.090, 7.301e-6
-0.091, 7.310e-6
-0.092, 7.316e-6
-0.093, 7.313e-6
-0.094, 7.319e-6
-0.095, 7.322e-6
-0.096, 7.328e-6
-0.097, 7.338e-6
-0.098, 7.338e-6
-0.099, 7.344e-6
-0.100, 7.089e-6
-0.099, 6.480e-6
-0.098, 6.302e-6
-0.097, 6.179e-6
-0.096, 6.078e-6
-0.095, 5.977e-6
-0.094, 5.894e-6
-0.093, 5.814e-6
-0.092, 5.734e-6
-0.091, 5.666e-6
-0.090, 5.596e-6
-0.089, 5.531e-6
-0.088, 5.470e-6
-0.087, 5.405e-6
-0.086, 5.350e-6
-0.085, 5.294e-6
-0.084, 5.236e-6
-0.083, 5.187e-6
-0.082, 5.135e-6
-0.081, 5.085e-6
-0.080, 5.042e-6
-0.079, 4.990e-6
-0.078, 4.947e-6
-0.077, 4.901e-6
-0.076, 4.855e-6
-0.075, 4.815e-6
-0.074, 4.775e-6
-0.073, 4.732e-6
-0.072, 4.695e-6
-0.071, 4.646e-6
-0.070, 4.615e-6
-0.069, 4.579e-6
-0.068, 4.539e-6
-0.067, 4.508e-6
-0.066, 4.468e-6
-0.065, 4.434e-6
-0.064, 4.406e-6
-0.063, 4.367e-6
-0.062, 4.336e-6
-0.061, 4.305e-6
-0.060, 4.268e-6
-0.059, 4.244e-6
-0.058, 4.210e-6
-0.057, 4.179e-6
-0.056, 4.151e-6
-0.055, 4.121e-6
-0.054, 4.093e-6
-0.053, 4.065e-6
-0.052, 4.035e-6
-0.051, 4.010e-6
-0.050, 3.979e-6
-0.049, 3.952e-6
-0.048, 3.930e-6
-0.047, 3.899e-6
-0.046, 3.875e-6
-0.045, 3.850e-6
-0.044, 3.823e-6
-0.043, 3.798e-6
-0.042, 3.774e-6
-0.041, 3.752e-6
-0.040, 3.730e-6
-0.039, 3.703e-6
-0.038, 3.681e-6
-0.037, 3.654e-6
-0.036, 3.632e-6
-0.035, 3.617e-6
-0.034, 3.592e-6
-0.033, 3.568e-6
-0.032, 3.546e-6
-0.031, 3.522e-6
-0.030, 3.503e-6
-0.029, 3.485e-6
-0.028, 3.460e-6
-0.027, 3.442e-6
-0.026, 3.420e-6
-0.025, 3.399e-6
-0.024, 3.380e-6
-0.023, 3.359e-6
-0.022, 3.340e-6
-0.021, 3.322e-6
-0.020, 3.297e-6
-0.019, 3.285e-6
-0.018, 3.263e-6
-0.017, 3.242e-6
-0.016, 3.230e-6
-0.015, 3.202e-6
-0.014, 3.190e-6
-0.013, 3.171e-6
-0.012, 3.150e-6
-0.011, 3.134e-6
-0.010, 3.116e-6
-0.009, 3.094e-6
-0.008, 3.082e-6
-0.007, 3.058e-6
-0.006, 3.045e-6
-0.005, 3.030e-6
-0.004, 3.008e-6
-0.003, 2.996e-6
-0.002, 2.975e-6
-0.001, 2.959e-6
-0.000, 2.938e-6
0.001, 2.922e-6
0.002, 2.907e-6
0.003, 2.892e-6
0.004, 2.873e-6
0.005, 2.864e-6
0.006, 2.846e-6
0.007, 2.824e-6
0.008, 2.809e-6
0.009, 2.793e-6
0.010, 2.781e-6
0.011, 2.769e-6
0.012, 2.744e-6
0.013, 2.738e-6
0.014, 2.717e-6
0.015, 2.698e-6
0.016, 2.692e-6
0.017, 2.667e-6
0.018, 2.658e-6
0.019, 2.640e-6
0.020, 2.621e-6
0.021, 2.609e-6
0.022, 2.594e-6
0.023, 2.578e-6
0.024, 2.569e-6
0.025, 2.548e-6
0.026, 2.535e-6
0.027, 2.517e-6
0.028, 2.501e-6
0.029, 2.492e-6
0.030, 2.474e-6
0.031, 2.458e-6
0.032, 2.443e-6
0.033, 2.428e-6
0.034, 2.412e-6
0.035, 2.403e-6
0.036, 2.382e-6
0.037, 2.366e-6
0.038, 2.354e-6
0.039, 2.339e-6
0.040, 2.326e-6
0.041, 2.305e-6
0.042, 2.293e-6
0.043, 2.274e-6
0.044, 2.259e-6
0.045, 2.253e-6
0.046, 2.231e-6
0.047, 2.213e-6
0.048, 2.206e-6
0.049, 2.182e-6
0.050, 2.173e-6
0.051, 2.157e-6
0.052, 2.136e-6
0.053, 2.124e-6
0.054, 2.105e-6
0.055, 2.093e-6
0.056, 2.081e-6
0.057, 2.056e-6
0.058, 2.044e-6
0.059, 2.028e-6
0.060, 2.007e-6
0.061, 2.001e-6
0.062, 1.979e-6
0.063, 1.961e-6
0.064, 1.951e-6
0.065, 1.930e-6
0.066, 1.912e-6
0.067, 1.896e-6
0.068, 1.875e-6
0.069, 1.865e-6
0.070, 1.844e-6
0.071, 1.822e-6
0.072, 1.810e-6
0.073, 1.789e-6
0.074, 1.776e-6
0.075, 1.761e-6
0.076, 1.736e-6
0.077, 1.724e-6
0.078, 1.700e-6
0.079, 1.684e-6
0.080, 1.669e-6
0.081, 1.641e-6
0.082, 1.623e-6
0.083, 1.604e-6
0.084, 1.583e-6
0.085, 1.570e-6
0.086, 1.546e-6
0.087, 1.527e-6
0.088, 1.509e-6
0.089, 1.481e-6
0.090, 1.469e-6
0.091, 1.444e-6
0.092, 1.417e-6
0.093, 1.405e-6
0.094, 1.380e-6
0.095, 1.358e-6
0.096, 1.337e-6
0.097, 1.309e-6
0.098, 1.291e-6
0.099, 1.269e-6
0.100, 1.239e-6
0.101, 1.220e-6
0.102, 1.193e-6
0.103, 1.171e-6
0.104, 1.150e-6
0.105, 1.119e-6
0.106, 1.094e-6
0.107, 1.070e-6
0.108, 1.042e-6
0.109, 1.020e-6
0.110, 9.898e-7
0.111, 9.590e-7
0.112, 9.375e-7
0.113, 9.037e-7
0.114, 8.791e-7
0.115, 8.515e-7
0.116, 8.146e-7
0.117, 7.870e-7
0.118, 7.562e-7
0.119, 7.255e-7
0.120, 6.979e-7
0.121, 6.579e-7
0.122, 6.272e-7
0.123, 5.934e-7
0.124, 5.565e-7
0.125, 5.319e-7
0.126, 4.889e-7
0.127, 4.521e-7
0.128, 4.244e-7
0.129, 3.783e-7
0.130, 3.414e-7
0.131, 3.046e-7
0.132, 2.585e-7
0.133, 2.247e-7
0.134, 1.755e-7
0.135, 1.356e-7
0.136, 9.257e-8
0.137, 4.033e-8
0.138, 3.461e-9
0.139, -4.263e-8
0.140, -9.793e-8
0.141, -1.379e-7
0.142, -1.932e-7
0.143, -2.423e-7
0.144, -2.823e-7
0.145, -3.530e-7
0.146, -4.021e-7
0.147, -4.574e-7
0.148, -5.127e-7
0.149, -5.650e-7
0.150, -6.326e-7
0.151, -6.909e-7
0.152, -7.493e-7
0.153, -8.200e-7
0.154, -8.753e-7
0.155, -9.490e-7
0.156, -1.023e-6
0.157, -1.084e-6
0.158, -1.158e-6
0.159, -1.229e-6
0.160, -1.299e-6
0.161, -1.385e-6
0.162, -1.459e-6
0.163, -1.536e-6
0.164, -1.619e-6
0.165, -1.699e-6
0.166, -1.785e-6
0.167, -1.868e-6
0.168, -1.957e-6
0.169, -2.055e-6
0.170, -2.135e-6
0.171, -2.227e-6
0.172, -2.329e-6
0.173, -2.418e-6
0.174, -2.522e-6
0.175, -2.624e-6
0.176, -2.716e-6
0.177, -2.829e-6
0.178, -2.925e-6
0.179, -3.026e-6
0.180, -3.146e-6
0.181, -3.244e-6
0.182, -3.361e-6
0.183, -3.472e-6
0.184, -3.579e-6
0.185, -3.708e-6
0.186, -3.813e-6
0.187, -3.936e-6
0.188, -4.052e-6
0.189, -4.151e-6
0.190, -4.289e-6
0.191, -4.403e-6
0.192, -4.513e-6
0.193, -4.645e-6
0.194, -4.759e-6
0.195, -4.885e-6
0.196, -5.008e-6
0.197, -5.125e-6
0.198, -5.244e-6
0.199, -5.367e-6
0.200, -5.490e-6
0.201, -5.610e-6
0.202, -5.715e-6
0.203, -5.844e-6
0.204, -5.960e-6
0.205, -6.077e-6
0.206, -6.197e-6
0.207, -6.311e-6
0.208, -6.409e-6
0.209, -6.529e-6
0.210, -6.633e-6
0.211, -6.735e-6
0.212, -6.848e-6
0.213, -6.941e-6
0.214, -7.051e-6
0.215, -7.143e-6
0.216, -7.226e-6
0.217, -7.328e-6
0.218, -7.405e-6
0.219, -7.500e-6
0.220, -7.589e-6
0.221, -7.653e-6
0.222, -7.736e-6
0.223, -7.810e-6
0.224, -7.875e-6
0.225, -7.954e-6
0.226, -8.016e-6
0.227, -8.071e-6
0.228, -8.127e-6
0.229, -8.176e-6
0.230, -8.234e-6
0.231, -8.271e-6
0.232, -8.317e-6
0.233, -8.366e-6
0.234, -8.394e-6
0.235, -8.434e-6
0.236, -8.465e-6
0.237, -8.489e-6
0.238, -8.517e-6
0.239, -8.532e-6
0.240, -8.547e-6
0.241, -8.569e-6
0.242, -8.575e-6
0.243, -8.587e-6
0.244, -8.587e-6
0.245, -8.594e-6
0.246, -8.600e-6
0.247, -8.594e-6
0.248, -8.587e-6
0.249, -8.591e-6
0.250, -8.575e-6
0.251, -8.560e-6
0.252, -8.551e-6
0.253, -8.523e-6
0.254, -8.520e-6
0.255, -8.498e-6
0.256, -8.468e-6
0.257, -8.452e-6
0.258, -8.431e-6
0.259, -8.400e-6
0.260, -8.385e-6
0.261, -8.342e-6
0.262, -8.317e-6
0.263, -8.286e-6
0.264, -8.253e-6
0.265, -8.231e-6
0.266, -8.185e-6
0.267, -8.154e-6
0.268, -8.120e-6
0.269, -8.074e-6
0.270, -8.047e-6
0.271, -8.010e-6
0.272, -7.964e-6
0.273, -7.933e-6
0.274, -7.893e-6
0.275, -7.853e-6
0.276, -7.816e-6
0.277, -7.773e-6
0.278, -7.736e-6
0.279, -7.693e-6
0.280, -7.650e-6
0.281, -7.610e-6
0.282, -7.567e-6
0.283, -7.534e-6
0.284, -7.497e-6
0.285, -7.444e-6
0.286, -7.411e-6
0.287, -7.371e-6
0.288, -7.328e-6
0.289, -7.297e-6
0.290, -7.248e-6
0.291, -7.208e-6
0.292, -7.174e-6
0.293, -7.131e-6
0.294, -7.094e-6
0.295, -7.054e-6
0.296, -7.014e-6
0.297, -6.980e-6
0.298, -6.937e-6
0.299, -6.901e-6
0.300, -6.873e-6
0.301, -6.827e-6
0.302, -6.793e-6
0.303, -6.759e-6
0.304, -6.716e-6
0.305, -6.689e-6
0.306, -6.652e-6
0.307, -6.618e-6
0.308, -6.587e-6
0.309, -6.550e-6
0.310, -6.523e-6
0.311, -6.486e-6
0.312, -6.452e-6
0.313, -6.424e-6
0.314, -6.391e-6
0.315, -6.360e-6
0.316, -6.332e-6
0.317, -6.295e-6
0.318, -6.271e-6
0.319, -6.243e-6
0.320, -6.203e-6
0.321, -6.182e-6
0.322, -6.151e-6
0.323, -6.123e-6
0.324, -6.099e-6
0.325, -6.065e-6
0.326, -6.040e-6
0.327, -6.016e-6
0.328, -5.988e-6
0.329, -5.970e-6
0.330, -5.936e-6
0.331, -5.911e-6
0.332, -5.893e-6
0.333, -5.856e-6
0.334, -5.841e-6
0.335, -5.819e-6
0.336, -5.788e-6
0.337, -5.773e-6
0.338, -5.748e-6
0.339, -5.727e-6
0.340, -5.708e-6
0.341, -5.681e-6
0.342, -5.659e-6
0.343, -5.638e-6
0.344, -5.616e-6
0.345, -5.604e-6
0.346, -5.576e-6
0.347, -5.558e-6
0.348, -5.543e-6
0.349, -5.515e-6
0.350, -5.503e-6
0.351, -5.481e-6
0.352, -5.463e-6
0.353, -5.447e-6
0.354, -5.426e-6
0.355, -5.404e-6
0.356, -5.392e-6
0.357, -5.374e-6
0.358, -5.361e-6
0.359, -5.343e-6
0.360, -5.324e-6
0.361, -5.309e-6
0.362, -5.291e-6
0.363, -5.278e-6
0.364, -5.266e-6
0.365, -5.241e-6
0.366, -5.232e-6
0.367, -5.220e-6
0.368, -5.198e-6
0.369, -5.192e-6
0.370, -5.174e-6
0.371, -5.155e-6
0.372, -5.146e-6
0.373, -5.131e-6
0.374, -5.119e-6
0.375, -5.106e-6
0.376, -5.091e-6
0.377, -5.085e-6
0.378, -5.066e-6
0.379, -5.057e-6
0.380, -5.048e-6
0.381, -5.026e-6
0.382, -5.017e-6
0.383, -5.008e-6
0.384, -4.989e-6
0.385, -4.989e-6
0.386, -4.974e-6
0.387, -4.962e-6
0.388, -4.953e-6
0.389, -4.937e-6
0.390, -4.931e-6
0.391, -4.922e-6
0.392, -4.907e-6
0.393, -4.903e-6
0.394, -4.888e-6
0.395, -4.879e-6
0.396, -4.873e-6
0.397, -4.857e-6
0.398, -4.854e-6
0.399, -4.845e-6
0.400, -4.827e-6
0.401, -4.827e-6
0.402, -4.817e-6
0.403, -4.808e-6
0.404, -4.802e-6
0.405, -4.787e-6
0.406, -4.781e-6
0.407, -4.774e-6
0.408, -4.765e-6
0.409, -4.762e-6
0.410, -4.756e-6
0.411, -4.744e-6
0.412, -4.741e-6
0.413, -4.725e-6
0.414, -4.722e-6
0.415, -4.713e-6
0.416, -4.701e-6
0.417, -4.704e-6
0.418, -4.691e-6
0.419, -4.682e-6
0.420, -4.682e-6
0.421, -4.670e-6
0.422, -4.664e-6
0.423, -4.661e-6
0.424, -4.651e-6
0.425, -4.651e-6
0.426, -4.639e-6
0.427, -4.636e-6
0.428, -4.630e-6
0.429, -4.624e-6
0.430, -4.618e-6
0.431, -4.615e-6
0.432, -4.605e-6
0.433, -4.602e-6
0.434, -4.593e-6
0.435, -4.587e-6
0.436, -4.587e-6
0.437, -4.584e-6
0.438, -4.578e-6
0.439, -4.569e-6
0.440, -4.562e-6
0.441, -4.565e-6
0.442, -4.559e-6
0.443, -4.553e-6
0.444, -4.553e-6
0.445, -4.538e-6
0.446, -4.541e-6
0.447, -4.541e-6
0.448, -4.526e-6
0.449, -4.532e-6
0.450, -4.526e-6
0.451, -4.519e-6
0.452, -4.519e-6
0.453, -4.510e-6
0.454, -4.513e-6
0.455, -4.507e-6
0.456, -4.501e-6
0.457, -4.504e-6
0.458, -4.498e-6
0.459, -4.492e-6
0.460, -4.495e-6
0.461, -4.486e-6
0.462, -4.489e-6
0.463, -4.489e-6
0.464, -4.476e-6
0.465, -4.479e-6
0.466, -4.479e-6
0.467, -4.476e-6
0.468, -4.473e-6
0.469, -4.470e-6
0.470, -4.467e-6
0.471, -4.467e-6
0.472, -4.464e-6
0.473, -4.467e-6
0.474, -4.458e-6
0.475, -4.458e-6
0.476, -4.461e-6
0.477, -4.455e-6
0.478, -4.458e-6
0.479, -4.452e-6
0.480, -4.446e-6
0.481, -4.455e-6
0.482, -4.452e-6
0.483, -4.449e-6
0.484, -4.449e-6
0.485, -4.443e-6
0.486, -4.443e-6
0.487, -4.446e-6
0.488, -4.443e-6
0.489, -4.446e-6
0.490, -4.443e-6
0.491, -4.439e-6
0.492, -4.446e-6
0.493, -4.439e-6
0.494, -4.443e-6
0.495, -4.443e-6
0.496, -4.436e-6
0.497, -4.443e-6
0.498, -4.439e-6
0.499, -4.436e-6
