Apr. 7, 2019   11:53:30
Double Differential Pulse Amperometry
File: D:\process\data\ddpa1.bin.txt
Data Source:  Experiment
Instrument Model:  CHI900D
Header: 
Note: 

Clean E1 (V) = 0
Clean T1 (s) = 0
Pulse E1 (V) = 0.25
Pulse T1 (s) = 0.1
Pulse E2 (V) = 0.2
Pulse T2 (s) = 0.1
Clean E2 (V) = 0
Clean T2 (s) = 0
Pulse E3 (V) = 0.25
Pulse T3 (s) = 0.1
Pulse E4 (V) = 0.3
Pulse T4 (s) = 0.1
Run Time (sec) = 80
Init E (V) = 0.25
Quiet Time (sec) = 5
Sensitivity (A/V) = 1e-5


Current 2:


Time/s, i1/A, i2/A, i3/A, i4/A

0.400, -1.938e-7, 4.446e-6, -1.788e-6, -2.816e-6
0.800, 1.948e-7, 4.502e-6, -1.787e-6, -2.830e-6
1.200, 1.763e-7, 4.484e-6, -1.804e-6, -2.844e-6
1.600, 1.630e-7, 4.472e-6, -1.815e-6, -2.853e-6
2.000, 1.549e-7, 4.465e-6, -1.820e-6, -2.858e-6
2.400, 1.500e-7, 4.460e-6, -1.824e-6, -2.861e-6
2.800, 1.472e-7, 4.458e-6, -1.826e-6, -2.862e-6
3.200, 1.456e-7, 4.456e-6, -1.827e-6, -2.862e-6
3.600, 1.448e-7, 4.455e-6, -1.827e-6, -2.862e-6
4.000, 1.449e-7, 4.455e-6, -1.827e-6, -2.862e-6
4.400, 1.452e-7, 4.456e-6, -1.826e-6, -2.861e-6
4.800, 1.454e-7, 4.456e-6, -1.826e-6, -2.859e-6
5.200, 1.468e-7, 4.457e-6, -1.824e-6, -2.858e-6
5.600, 1.477e-7, 4.457e-6, -1.823e-6, -2.857e-6
6.000, 1.486e-7, 4.458e-6, -1.822e-6, -2.856e-6
6.400, 1.501e-7, 4.459e-6, -1.820e-6, -2.854e-6
6.800, 1.510e-7, 4.460e-6, -1.819e-6, -2.852e-6
7.200, 1.523e-7, 4.461e-6, -1.818e-6, -2.851e-6
7.600, 1.536e-7, 4.462e-6, -1.816e-6, -2.849e-6
8.000, 1.546e-7, 4.463e-6, -1.815e-6, -2.848e-6
8.400, 1.563e-7, 4.465e-6, -1.814e-6, -2.846e-6
8.800, 1.571e-7, 4.465e-6, -1.812e-6, -2.845e-6
9.200, 1.589e-7, 4.467e-6, -1.811e-6, -2.843e-6
9.600, 1.598e-7, 4.468e-6, -1.810e-6, -2.842e-6
10.000, 1.612e-7, 4.469e-6, -1.808e-6, -2.840e-6
10.400, 1.624e-7, 4.470e-6, -1.807e-6, -2.839e-6
10.800, 1.638e-7, 4.471e-6, -1.806e-6, -2.837e-6
11.200, 1.648e-7, 4.472e-6, -1.804e-6, -2.836e-6
11.600, 1.661e-7, 4.473e-6, -1.803e-6, -2.835e-6
12.000, 1.672e-7, 4.474e-6, -1.802e-6, -2.833e-6
12.400, 1.682e-7, 4.475e-6, -1.801e-6, -2.832e-6
12.800, 1.694e-7, 4.475e-6, -1.799e-6, -2.830e-6
13.200, 1.707e-7, 4.477e-6, -1.798e-6, -2.829e-6
13.600, 1.720e-7, 4.477e-6, -1.797e-6, -2.828e-6
14.000, 1.729e-7, 4.479e-6, -1.796e-6, -2.827e-6
14.400, 1.741e-7, 4.480e-6, -1.795e-6, -2.825e-6
14.800, 1.749e-7, 4.480e-6, -1.793e-6, -2.824e-6
15.200, 1.760e-7, 4.481e-6, -1.792e-6, -2.823e-6
15.600, 1.768e-7, 4.482e-6, -1.791e-6, -2.822e-6
16.000, 1.780e-7, 4.483e-6, -1.790e-6, -2.820e-6
16.400, 1.791e-7, 4.484e-6, -1.789e-6, -2.819e-6
16.800, 1.800e-7, 4.484e-6, -1.788e-6, -2.818e-6
17.200, 1.809e-7, 4.485e-6, -1.787e-6, -2.817e-6
17.600, 1.818e-7, 4.486e-6, -1.786e-6, -2.816e-6
18.000, 1.830e-7, 4.487e-6, -1.785e-6, -2.815e-6
18.400, 1.834e-7, 4.487e-6, -1.784e-6, -2.814e-6
18.800, 1.846e-7, 4.488e-6, -1.783e-6, -2.812e-6
19.200, 1.855e-7, 4.489e-6, -1.782e-6, -2.812e-6
19.600, 1.862e-7, 4.489e-6, -1.781e-6, -2.810e-6
20.000, 1.869e-7, 4.490e-6, -1.780e-6, -2.810e-6
20.400, 1.880e-7, 4.491e-6, -1.779e-6, -2.808e-6
20.800, 1.888e-7, 4.492e-6, -1.778e-6, -2.807e-6
21.200, 1.896e-7, 4.492e-6, -1.778e-6, -2.806e-6
21.600, 1.902e-7, 4.493e-6, -1.777e-6, -2.805e-6
22.000, 1.910e-7, 4.493e-6, -1.776e-6, -2.804e-6
22.400, 1.917e-7, 4.494e-6, -1.775e-6, -2.803e-6
22.800, 1.927e-7, 4.494e-6, -1.774e-6, -2.803e-6
23.200, 1.934e-7, 4.495e-6, -1.773e-6, -2.802e-6
23.600, 1.941e-7, 4.496e-6, -1.772e-6, -2.801e-6
24.000, 1.951e-7, 4.496e-6, -1.771e-6, -2.800e-6
24.400, 1.957e-7, 4.497e-6, -1.771e-6, -2.799e-6
24.800, 1.965e-7, 4.497e-6, -1.770e-6, -2.798e-6
25.200, 1.974e-7, 4.498e-6, -1.769e-6, -2.797e-6
25.600, 1.977e-7, 4.498e-6, -1.769e-6, -2.796e-6
26.000, 1.985e-7, 4.499e-6, -1.768e-6, -2.795e-6
26.400, 1.988e-7, 4.499e-6, -1.767e-6, -2.795e-6
26.800, 1.998e-7, 4.500e-6, -1.766e-6, -2.794e-6
27.200, 2.006e-7, 4.501e-6, -1.765e-6, -2.793e-6
27.600, 2.011e-7, 4.501e-6, -1.765e-6, -2.792e-6
28.000, 2.016e-7, 4.502e-6, -1.764e-6, -2.792e-6
28.400, 2.023e-7, 4.503e-6, -1.763e-6, -2.791e-6
28.800, 2.028e-7, 4.503e-6, -1.763e-6, -2.790e-6
29.200, 2.034e-7, 4.503e-6, -1.762e-6, -2.789e-6
29.600, 2.041e-7, 4.504e-6, -1.761e-6, -2.789e-6
30.000, 2.047e-7, 4.504e-6, -1.760e-6, -2.788e-6
30.400, 2.053e-7, 4.504e-6, -1.760e-6, -2.787e-6
30.800, 2.059e-7, 4.505e-6, -1.759e-6, -2.786e-6
31.200, 2.062e-7, 4.506e-6, -1.758e-6, -2.786e-6
31.600, 2.069e-7, 4.506e-6, -1.758e-6, -2.785e-6
32.000, 2.076e-7, 4.506e-6, -1.757e-6, -2.784e-6
32.400, 2.082e-7, 4.506e-6, -1.756e-6, -2.783e-6
32.800, 2.086e-7, 4.507e-6, -1.756e-6, -2.783e-6
33.200, 2.091e-7, 4.507e-6, -1.755e-6, -2.782e-6
33.600, 2.098e-7, 4.507e-6, -1.754e-6, -2.781e-6
34.000, 2.103e-7, 4.508e-6, -1.754e-6, -2.781e-6
34.400, 2.107e-7, 4.509e-6, -1.754e-6, -2.780e-6
34.800, 2.114e-7, 4.509e-6, -1.753e-6, -2.779e-6
35.200, 2.117e-7, 4.509e-6, -1.752e-6, -2.778e-6
35.600, 2.121e-7, 4.509e-6, -1.752e-6, -2.778e-6
36.000, 2.125e-7, 4.510e-6, -1.751e-6, -2.777e-6
36.400, 2.131e-7, 4.510e-6, -1.751e-6, -2.776e-6
36.800, 2.132e-7, 4.510e-6, -1.750e-6, -2.776e-6
37.200, 2.138e-7, 4.511e-6, -1.750e-6, -2.775e-6
37.600, 2.145e-7, 4.511e-6, -1.749e-6, -2.775e-6
38.000, 2.149e-7, 4.511e-6, -1.748e-6, -2.774e-6
38.400, 2.157e-7, 4.512e-6, -1.748e-6, -2.773e-6
38.800, 2.154e-7, 4.512e-6, -1.747e-6, -2.773e-6
39.200, 2.165e-7, 4.512e-6, -1.747e-6, -2.772e-6
39.600, 2.166e-7, 4.513e-6, -1.746e-6, -2.772e-6
40.000, 2.173e-7, 4.513e-6, -1.746e-6, -2.771e-6
40.400, 2.179e-7, 4.514e-6, -1.745e-6, -2.771e-6
40.800, 2.180e-7, 4.513e-6, -1.745e-6, -2.770e-6
41.200, 2.188e-7, 4.514e-6, -1.744e-6, -2.770e-6
41.600, 2.192e-7, 4.514e-6, -1.744e-6, -2.769e-6
42.000, 2.195e-7, 4.514e-6, -1.743e-6, -2.768e-6
42.400, 2.196e-7, 4.515e-6, -1.743e-6, -2.768e-6
42.800, 2.203e-7, 4.515e-6, -1.742e-6, -2.767e-6
43.200, 2.204e-7, 4.515e-6, -1.742e-6, -2.767e-6
43.600, 2.208e-7, 4.516e-6, -1.741e-6, -2.766e-6
44.000, 2.212e-7, 4.516e-6, -1.741e-6, -2.766e-6
44.400, 2.216e-7, 4.516e-6, -1.740e-6, -2.765e-6
44.800, 2.222e-7, 4.516e-6, -1.740e-6, -2.765e-6
45.200, 2.224e-7, 4.517e-6, -1.740e-6, -2.764e-6
45.600, 2.229e-7, 4.517e-6, -1.739e-6, -2.764e-6
46.000, 2.233e-7, 4.517e-6, -1.739e-6, -2.763e-6
46.400, 2.235e-7, 4.517e-6, -1.738e-6, -2.763e-6
46.800, 2.239e-7, 4.518e-6, -1.738e-6, -2.762e-6
47.200, 2.241e-7, 4.518e-6, -1.737e-6, -2.762e-6
47.600, 2.246e-7, 4.518e-6, -1.737e-6, -2.761e-6
48.000, 2.248e-7, 4.518e-6, -1.737e-6, -2.760e-6
48.400, 2.252e-7, 4.518e-6, -1.737e-6, -2.760e-6
48.800, 2.257e-7, 4.519e-6, -1.736e-6, -2.760e-6
49.200, 2.259e-7, 4.519e-6, -1.735e-6, -2.759e-6
49.600, 2.263e-7, 4.520e-6, -1.735e-6, -2.759e-6
50.000, 2.266e-7, 4.519e-6, -1.735e-6, -2.758e-6
50.400, 2.273e-7, 4.520e-6, -1.734e-6, -2.758e-6
50.800, 2.276e-7, 4.520e-6, -1.734e-6, -2.757e-6
51.200, 2.276e-7, 4.520e-6, -1.733e-6, -2.757e-6
51.600, 2.280e-7, 4.520e-6, -1.733e-6, -2.756e-6
52.000, 2.286e-7, 4.521e-6, -1.733e-6, -2.756e-6
52.400, 2.287e-7, 4.521e-6, -1.732e-6, -2.755e-6
52.800, 2.291e-7, 4.521e-6, -1.732e-6, -2.755e-6
53.200, 2.292e-7, 4.521e-6, -1.732e-6, -2.755e-6
53.600, 2.295e-7, 4.521e-6, -1.731e-6, -2.754e-6
54.000, 2.299e-7, 4.522e-6, -1.731e-6, -2.754e-6
54.400, 2.302e-7, 4.522e-6, -1.730e-6, -2.753e-6
54.800, 2.307e-7, 4.522e-6, -1.730e-6, -2.753e-6
55.200, 2.309e-7, 4.522e-6, -1.730e-6, -2.753e-6
55.600, 2.313e-7, 4.523e-6, -1.729e-6, -2.752e-6
56.000, 2.314e-7, 4.523e-6, -1.729e-6, -2.752e-6
56.400, 2.314e-7, 4.523e-6, -1.728e-6, -2.751e-6
56.800, 2.320e-7, 4.523e-6, -1.728e-6, -2.751e-6
57.200, 2.323e-7, 4.523e-6, -1.728e-6, -2.750e-6
57.600, 2.326e-7, 4.523e-6, -1.727e-6, -2.750e-6
58.000, 2.327e-7, 4.524e-6, -1.727e-6, -2.750e-6
58.400, 2.332e-7, 4.524e-6, -1.727e-6, -2.749e-6
58.800, 2.334e-7, 4.524e-6, -1.726e-6, -2.749e-6
59.200, 2.336e-7, 4.524e-6, -1.726e-6, -2.749e-6
59.600, 2.340e-7, 4.525e-6, -1.726e-6, -2.748e-6
60.000, 2.343e-7, 4.524e-6, -1.725e-6, -2.748e-6
60.400, 2.346e-7, 4.524e-6, -1.726e-6, -2.747e-6
60.800, 2.345e-7, 4.525e-6, -1.725e-6, -2.747e-6
61.200, 2.350e-7, 4.525e-6, -1.725e-6, -2.747e-6
61.600, 2.351e-7, 4.525e-6, -1.724e-6, -2.746e-6
62.000, 2.354e-7, 4.525e-6, -1.724e-6, -2.746e-6
62.400, 2.356e-7, 4.525e-6, -1.723e-6, -2.745e-6
62.800, 2.360e-7, 4.525e-6, -1.723e-6, -2.745e-6
63.200, 2.365e-7, 4.525e-6, -1.723e-6, -2.745e-6
63.600, 2.365e-7, 4.526e-6, -1.723e-6, -2.744e-6
64.000, 2.367e-7, 4.526e-6, -1.722e-6, -2.744e-6
64.400, 2.372e-7, 4.526e-6, -1.722e-6, -2.744e-6
64.800, 2.371e-7, 4.526e-6, -1.722e-6, -2.743e-6
65.200, 2.375e-7, 4.526e-6, -1.721e-6, -2.743e-6
65.600, 2.379e-7, 4.526e-6, -1.721e-6, -2.743e-6
66.000, 2.377e-7, 4.527e-6, -1.721e-6, -2.742e-6
66.400, 2.379e-7, 4.526e-6, -1.721e-6, -2.742e-6
66.800, 2.382e-7, 4.527e-6, -1.720e-6, -2.742e-6
67.200, 2.386e-7, 4.527e-6, -1.720e-6, -2.741e-6
67.600, 2.386e-7, 4.527e-6, -1.719e-6, -2.741e-6
68.000, 2.388e-7, 4.527e-6, -1.719e-6, -2.741e-6
68.400, 2.394e-7, 4.527e-6, -1.719e-6, -2.740e-6
68.800, 2.396e-7, 4.528e-6, -1.719e-6, -2.740e-6
69.200, 2.397e-7, 4.528e-6, -1.719e-6, -2.740e-6
69.600, 2.400e-7, 4.527e-6, -1.718e-6, -2.739e-6
70.000, 2.401e-7, 4.528e-6, -1.718e-6, -2.739e-6
70.400, 2.404e-7, 4.528e-6, -1.718e-6, -2.739e-6
70.800, 2.406e-7, 4.528e-6, -1.717e-6, -2.738e-6
71.200, 2.411e-7, 4.528e-6, -1.717e-6, -2.738e-6
71.600, 2.409e-7, 4.528e-6, -1.717e-6, -2.738e-6
72.000, 2.409e-7, 4.528e-6, -1.717e-6, -2.738e-6
72.400, 2.413e-7, 4.528e-6, -1.717e-6, -2.737e-6
72.800, 2.414e-7, 4.528e-6, -1.716e-6, -2.737e-6
73.200, 2.414e-7, 4.528e-6, -1.716e-6, -2.737e-6
73.600, 2.418e-7, 4.529e-6, -1.716e-6, -2.736e-6
74.000, 2.419e-7, 4.529e-6, -1.715e-6, -2.736e-6
74.400, 2.426e-7, 4.529e-6, -1.715e-6, -2.736e-6
74.800, 2.424e-7, 4.529e-6, -1.715e-6, -2.735e-6
75.200, 2.428e-7, 4.529e-6, -1.715e-6, -2.735e-6
75.600, 2.428e-7, 4.529e-6, -1.715e-6, -2.735e-6
76.000, 2.429e-7, 4.529e-6, -1.714e-6, -2.734e-6
76.400, 2.435e-7, 4.529e-6, -1.714e-6, -2.734e-6
76.800, 2.433e-7, 4.529e-6, -1.714e-6, -2.734e-6
77.200, 2.437e-7, 4.530e-6, -1.713e-6, -2.733e-6
77.600, 2.437e-7, 4.530e-6, -1.713e-6, -2.733e-6
78.000, 2.437e-7, 4.530e-6, -1.713e-6, -2.733e-6
78.400, 2.440e-7, 4.530e-6, -1.713e-6, -2.733e-6
78.800, 2.441e-7, 4.530e-6, -1.713e-6, -2.733e-6
79.200, 2.447e-7, 4.530e-6, -1.712e-6, -2.732e-6
79.600, 2.449e-7, 4.529e-6, -1.712e-6, -2.732e-6
80.000, 2.449e-7, 4.530e-6, -1.712e-6, -2.732e-6
