Apr. 7, 2019   11:42:46
Differential Normal Pulse Voltammetry
File: D:\process\data\dnpv1.bin.txt
Data Source:  Experiment
Instrument Model:  CHI900D
Header: 
Note: 

Init E (V) = 0.5
Final E (V) = -0.1
Incr E (V) = 0.004
Amplitude (V) = 0.05
1st Pulse Width (sec) = 0.2
2nd Pulse Width (sec) = 0.05
Sample Width (sec) = 0.0167
Pulse Period (sec) = 0.4
Quiet Time (sec) = 2
Sensitivity (A/V) = 1e-5

Potential/V, Current/A

0.496, 8.295e-7
0.492, 8.222e-7
0.488, 8.132e-7
0.484, 8.054e-7
0.480, 7.978e-7
0.476, 7.920e-7
0.472, 7.856e-7
0.468, 7.800e-7
0.464, 7.746e-7
0.460, 7.703e-7
0.456, 7.664e-7
0.452, 7.625e-7
0.448, 7.594e-7
0.444, 7.568e-7
0.440, 7.546e-7
0.436, 7.533e-7
0.432, 7.521e-7
0.428, 7.516e-7
0.424, 7.518e-7
0.420, 7.531e-7
0.416, 7.553e-7
0.412, 7.587e-7
0.408, 7.618e-7
0.404, 7.672e-7
0.400, 7.731e-7
0.396, 7.809e-7
0.392, 7.910e-7
0.388, 8.029e-7
0.384, 8.174e-7
0.380, 8.347e-7
0.376, 8.544e-7
0.372, 8.778e-7
0.368, 9.050e-7
0.364, 9.363e-7
0.360, 9.731e-7
0.356, 1.017e-6
0.352, 1.066e-6
0.348, 1.124e-6
0.344, 1.190e-6
0.340, 1.267e-6
0.336, 1.355e-6
0.332, 1.456e-6
0.328, 1.570e-6
0.324, 1.702e-6
0.320, 1.851e-6
0.316, 2.019e-6
0.312, 2.208e-6
0.308, 2.418e-6
0.304, 2.651e-6
0.300, 2.907e-6
0.296, 3.184e-6
0.292, 3.484e-6
0.288, 3.801e-6
0.284, 4.136e-6
0.280, 4.479e-6
0.276, 4.829e-6
0.272, 5.176e-6
0.268, 5.516e-6
0.264, 5.834e-6
0.260, 6.130e-6
0.256, 6.390e-6
0.252, 6.610e-6
0.248, 6.777e-6
0.244, 6.888e-6
0.240, 6.942e-6
0.236, 6.934e-6
0.232, 6.865e-6
0.228, 6.739e-6
0.224, 6.558e-6
0.220, 6.330e-6
0.216, 6.060e-6
0.212, 5.758e-6
0.208, 5.432e-6
0.204, 5.087e-6
0.200, 4.737e-6
0.196, 4.385e-6
0.192, 4.042e-6
0.188, 3.708e-6
0.184, 3.390e-6
0.180, 3.089e-6
0.176, 2.811e-6
0.172, 2.550e-6
0.168, 2.312e-6
0.164, 2.094e-6
0.160, 1.896e-6
0.156, 1.716e-6
0.152, 1.554e-6
0.148, 1.407e-6
0.144, 1.275e-6
0.140, 1.154e-6
0.136, 1.046e-6
0.132, 9.475e-7
0.128, 8.590e-7
0.124, 7.785e-7
0.120, 7.059e-7
0.116, 6.401e-7
0.112, 5.810e-7
0.108, 5.272e-7
0.104, 4.789e-7
0.100, 4.355e-7
0.096, 3.966e-7
0.092, 3.618e-7
0.088, 3.308e-7
0.084, 3.029e-7
0.080, 2.782e-7
0.076, 2.562e-7
0.072, 2.364e-7
0.068, 2.190e-7
0.064, 2.038e-7
0.060, 1.904e-7
0.056, 1.782e-7
0.052, 1.677e-7
0.048, 1.593e-7
0.044, 1.514e-7
0.040, 1.442e-7
0.036, 1.383e-7
0.032, 1.327e-7
0.028, 1.282e-7
0.024, 1.243e-7
0.020, 1.212e-7
0.016, 1.183e-7
0.012, 1.160e-7
0.008, 1.137e-7
0.004, 1.123e-7
-0.000, 1.105e-7
-0.004, 1.099e-7
-0.008, 1.095e-7
-0.012, 1.092e-7
-0.016, 1.093e-7
-0.020, 1.097e-7
-0.024, 1.103e-7
-0.028, 1.113e-7
-0.032, 1.124e-7
-0.036, 1.139e-7
-0.040, 1.154e-7
-0.044, 1.173e-7
-0.048, 1.191e-7
-0.052, 1.216e-7
-0.056, 1.241e-7
-0.060, 1.269e-7
-0.064, 1.299e-7
-0.068, 1.329e-7
-0.072, 1.363e-7
-0.076, 1.396e-7
-0.080, 1.435e-7
-0.084, 1.474e-7
-0.088, 1.514e-7
-0.092, 1.562e-7
-0.096, 1.608e-7
-0.100, 1.655e-7
