Apr. 7, 2019   11:52:02
Differential Pulse Amperometry
File: D:\process\data\dpa1.bin.txt
Data Source:  Experiment
Instrument Model:  CHI900D
Header: 
Note: 

Clean E (V) = 0
Clean T (sec) = 0
Pulse E1 (V) = 0.25
Pulse T1 (s) = 0.1
Pulse E2 (V) = 0.2
Pulse T2 (s) = 0.1
Run Time (sec) = 40
Init E (V) = 0.25
Quiet Time (sec) = 5
Sensitivity (A/V) = 1e-5


Time/s, Diff(i/A), For(i/A), Rev(i/A)

0.200, -4.682e-6, -7.350e-7, 3.947e-6
0.400, -5.672e-6, -2.321e-6, 3.351e-6
0.600, -5.789e-6, -2.651e-6, 3.138e-6
0.800, -5.828e-6, -2.801e-6, 3.027e-6
1.000, -5.846e-6, -2.886e-6, 2.960e-6
1.200, -5.856e-6, -2.941e-6, 2.915e-6
1.400, -5.862e-6, -2.978e-6, 2.884e-6
1.600, -5.866e-6, -3.004e-6, 2.862e-6
1.800, -5.868e-6, -3.023e-6, 2.846e-6
2.000, -5.870e-6, -3.037e-6, 2.833e-6
2.200, -5.871e-6, -3.047e-6, 2.824e-6
2.400, -5.872e-6, -3.054e-6, 2.818e-6
2.600, -5.873e-6, -3.060e-6, 2.813e-6
2.800, -5.873e-6, -3.063e-6, 2.810e-6
3.000, -5.873e-6, -3.066e-6, 2.807e-6
3.200, -5.873e-6, -3.067e-6, 2.806e-6
3.400, -5.873e-6, -3.068e-6, 2.805e-6
3.600, -5.874e-6, -3.069e-6, 2.805e-6
3.800, -5.873e-6, -3.068e-6, 2.805e-6
4.000, -5.873e-6, -3.068e-6, 2.805e-6
4.200, -5.873e-6, -3.066e-6, 2.806e-6
4.400, -5.873e-6, -3.065e-6, 2.808e-6
4.600, -5.872e-6, -3.063e-6, 2.809e-6
4.800, -5.872e-6, -3.062e-6, 2.810e-6
5.000, -5.872e-6, -3.060e-6, 2.812e-6
5.200, -5.872e-6, -3.058e-6, 2.815e-6
5.400, -5.872e-6, -3.056e-6, 2.816e-6
5.600, -5.872e-6, -3.054e-6, 2.818e-6
5.800, -5.871e-6, -3.051e-6, 2.820e-6
6.000, -5.871e-6, -3.049e-6, 2.822e-6
6.200, -5.871e-6, -3.047e-6, 2.824e-6
6.400, -5.871e-6, -3.044e-6, 2.827e-6
6.600, -5.870e-6, -3.041e-6, 2.828e-6
6.800, -5.870e-6, -3.039e-6, 2.831e-6
7.000, -5.870e-6, -3.037e-6, 2.833e-6
7.200, -5.870e-6, -3.034e-6, 2.836e-6
7.400, -5.870e-6, -3.032e-6, 2.838e-6
7.600, -5.869e-6, -3.030e-6, 2.840e-6
7.800, -5.869e-6, -3.027e-6, 2.842e-6
8.000, -5.869e-6, -3.024e-6, 2.844e-6
8.200, -5.868e-6, -3.022e-6, 2.846e-6
8.400, -5.868e-6, -3.020e-6, 2.848e-6
8.600, -5.868e-6, -3.017e-6, 2.850e-6
8.800, -5.868e-6, -3.015e-6, 2.852e-6
9.000, -5.868e-6, -3.013e-6, 2.855e-6
9.200, -5.868e-6, -3.011e-6, 2.857e-6
9.400, -5.867e-6, -3.008e-6, 2.859e-6
9.600, -5.867e-6, -3.006e-6, 2.861e-6
9.800, -5.866e-6, -3.004e-6, 2.862e-6
10.000, -5.866e-6, -3.002e-6, 2.864e-6
10.200, -5.866e-6, -3.000e-6, 2.866e-6
10.400, -5.866e-6, -2.997e-6, 2.869e-6
10.600, -5.865e-6, -2.995e-6, 2.870e-6
10.800, -5.865e-6, -2.993e-6, 2.872e-6
11.000, -5.866e-6, -2.992e-6, 2.874e-6
11.200, -5.865e-6, -2.989e-6, 2.876e-6
11.400, -5.864e-6, -2.987e-6, 2.877e-6
11.600, -5.864e-6, -2.985e-6, 2.879e-6
11.800, -5.864e-6, -2.983e-6, 2.881e-6
12.000, -5.864e-6, -2.981e-6, 2.883e-6
12.200, -5.864e-6, -2.979e-6, 2.884e-6
12.400, -5.864e-6, -2.978e-6, 2.886e-6
12.600, -5.864e-6, -2.976e-6, 2.888e-6
12.800, -5.863e-6, -2.974e-6, 2.889e-6
13.000, -5.863e-6, -2.972e-6, 2.891e-6
13.200, -5.863e-6, -2.970e-6, 2.893e-6
13.400, -5.863e-6, -2.968e-6, 2.894e-6
13.600, -5.862e-6, -2.967e-6, 2.895e-6
13.800, -5.863e-6, -2.966e-6, 2.897e-6
14.000, -5.862e-6, -2.964e-6, 2.899e-6
14.200, -5.862e-6, -2.962e-6, 2.900e-6
14.400, -5.861e-6, -2.960e-6, 2.901e-6
14.600, -5.862e-6, -2.959e-6, 2.903e-6
14.800, -5.861e-6, -2.957e-6, 2.904e-6
15.000, -5.861e-6, -2.955e-6, 2.906e-6
15.200, -5.861e-6, -2.954e-6, 2.907e-6
15.400, -5.861e-6, -2.952e-6, 2.909e-6
15.600, -5.861e-6, -2.951e-6, 2.910e-6
15.800, -5.860e-6, -2.949e-6, 2.911e-6
16.000, -5.860e-6, -2.948e-6, 2.912e-6
16.200, -5.860e-6, -2.946e-6, 2.914e-6
16.400, -5.860e-6, -2.945e-6, 2.915e-6
16.600, -5.860e-6, -2.944e-6, 2.916e-6
16.800, -5.860e-6, -2.942e-6, 2.918e-6
17.000, -5.859e-6, -2.941e-6, 2.919e-6
17.200, -5.859e-6, -2.939e-6, 2.920e-6
17.400, -5.859e-6, -2.938e-6, 2.921e-6
17.600, -5.859e-6, -2.937e-6, 2.922e-6
17.800, -5.859e-6, -2.936e-6, 2.923e-6
18.000, -5.858e-6, -2.934e-6, 2.924e-6
18.200, -5.859e-6, -2.933e-6, 2.926e-6
18.400, -5.858e-6, -2.931e-6, 2.926e-6
18.600, -5.859e-6, -2.931e-6, 2.928e-6
18.800, -5.858e-6, -2.929e-6, 2.929e-6
19.000, -5.858e-6, -2.928e-6, 2.930e-6
19.200, -5.857e-6, -2.926e-6, 2.931e-6
19.400, -5.858e-6, -2.925e-6, 2.932e-6
19.600, -5.857e-6, -2.924e-6, 2.933e-6
19.800, -5.857e-6, -2.923e-6, 2.934e-6
20.000, -5.857e-6, -2.922e-6, 2.935e-6
20.200, -5.857e-6, -2.921e-6, 2.936e-6
20.400, -5.857e-6, -2.920e-6, 2.937e-6
20.600, -5.856e-6, -2.919e-6, 2.938e-6
20.800, -5.857e-6, -2.917e-6, 2.939e-6
21.000, -5.856e-6, -2.917e-6, 2.940e-6
21.200, -5.856e-6, -2.915e-6, 2.940e-6
21.400, -5.856e-6, -2.914e-6, 2.942e-6
21.600, -5.856e-6, -2.913e-6, 2.943e-6
21.800, -5.856e-6, -2.912e-6, 2.944e-6
22.000, -5.856e-6, -2.911e-6, 2.944e-6
22.200, -5.855e-6, -2.910e-6, 2.945e-6
22.400, -5.855e-6, -2.909e-6, 2.946e-6
22.600, -5.855e-6, -2.908e-6, 2.947e-6
22.800, -5.855e-6, -2.907e-6, 2.948e-6
23.000, -5.854e-6, -2.906e-6, 2.949e-6
23.200, -5.854e-6, -2.905e-6, 2.949e-6
23.400, -5.855e-6, -2.904e-6, 2.951e-6
23.600, -5.854e-6, -2.903e-6, 2.952e-6
23.800, -5.854e-6, -2.902e-6, 2.952e-6
24.000, -5.854e-6, -2.901e-6, 2.953e-6
24.200, -5.853e-6, -2.900e-6, 2.953e-6
24.400, -5.854e-6, -2.899e-6, 2.955e-6
24.600, -5.854e-6, -2.898e-6, 2.955e-6
24.800, -5.854e-6, -2.898e-6, 2.956e-6
25.000, -5.854e-6, -2.897e-6, 2.957e-6
25.200, -5.853e-6, -2.895e-6, 2.957e-6
25.400, -5.852e-6, -2.895e-6, 2.958e-6
25.600, -5.853e-6, -2.894e-6, 2.959e-6
25.800, -5.853e-6, -2.893e-6, 2.960e-6
26.000, -5.852e-6, -2.892e-6, 2.960e-6
26.200, -5.853e-6, -2.891e-6, 2.961e-6
26.400, -5.852e-6, -2.890e-6, 2.962e-6
26.600, -5.852e-6, -2.890e-6, 2.962e-6
26.800, -5.852e-6, -2.889e-6, 2.963e-6
27.000, -5.852e-6, -2.888e-6, 2.964e-6
27.200, -5.852e-6, -2.887e-6, 2.964e-6
27.400, -5.851e-6, -2.886e-6, 2.965e-6
27.600, -5.852e-6, -2.886e-6, 2.966e-6
27.800, -5.851e-6, -2.885e-6, 2.966e-6
28.000, -5.852e-6, -2.884e-6, 2.967e-6
28.200, -5.851e-6, -2.883e-6, 2.968e-6
28.400, -5.851e-6, -2.882e-6, 2.968e-6
28.600, -5.851e-6, -2.882e-6, 2.969e-6
28.800, -5.851e-6, -2.881e-6, 2.970e-6
29.000, -5.851e-6, -2.881e-6, 2.970e-6
29.200, -5.851e-6, -2.880e-6, 2.971e-6
29.400, -5.851e-6, -2.879e-6, 2.972e-6
29.600, -5.850e-6, -2.878e-6, 2.972e-6
29.800, -5.850e-6, -2.878e-6, 2.973e-6
30.000, -5.850e-6, -2.877e-6, 2.973e-6
30.200, -5.850e-6, -2.876e-6, 2.974e-6
30.400, -5.850e-6, -2.876e-6, 2.975e-6
30.600, -5.850e-6, -2.875e-6, 2.975e-6
30.800, -5.850e-6, -2.874e-6, 2.976e-6
31.000, -5.850e-6, -2.874e-6, 2.976e-6
31.200, -5.849e-6, -2.873e-6, 2.977e-6
31.400, -5.849e-6, -2.872e-6, 2.977e-6
31.600, -5.849e-6, -2.872e-6, 2.977e-6
31.800, -5.849e-6, -2.871e-6, 2.978e-6
32.000, -5.849e-6, -2.870e-6, 2.979e-6
32.200, -5.849e-6, -2.870e-6, 2.979e-6
32.400, -5.849e-6, -2.869e-6, 2.980e-6
32.600, -5.848e-6, -2.868e-6, 2.980e-6
32.800, -5.849e-6, -2.868e-6, 2.981e-6
33.000, -5.849e-6, -2.867e-6, 2.981e-6
33.200, -5.848e-6, -2.867e-6, 2.982e-6
33.400, -5.848e-6, -2.866e-6, 2.982e-6
33.600, -5.848e-6, -2.865e-6, 2.983e-6
33.800, -5.848e-6, -2.865e-6, 2.983e-6
34.000, -5.848e-6, -2.864e-6, 2.984e-6
34.200, -5.847e-6, -2.864e-6, 2.984e-6
34.400, -5.847e-6, -2.863e-6, 2.985e-6
34.600, -5.848e-6, -2.862e-6, 2.985e-6
34.800, -5.847e-6, -2.862e-6, 2.985e-6
35.000, -5.847e-6, -2.861e-6, 2.986e-6
35.200, -5.847e-6, -2.861e-6, 2.986e-6
35.400, -5.847e-6, -2.860e-6, 2.987e-6
35.600, -5.847e-6, -2.860e-6, 2.988e-6
35.800, -5.847e-6, -2.859e-6, 2.988e-6
36.000, -5.847e-6, -2.858e-6, 2.988e-6
36.200, -5.846e-6, -2.858e-6, 2.989e-6
36.400, -5.846e-6, -2.857e-6, 2.989e-6
36.600, -5.846e-6, -2.857e-6, 2.989e-6
36.800, -5.846e-6, -2.856e-6, 2.990e-6
37.000, -5.846e-6, -2.856e-6, 2.991e-6
37.200, -5.846e-6, -2.855e-6, 2.991e-6
37.400, -5.846e-6, -2.855e-6, 2.992e-6
37.600, -5.846e-6, -2.854e-6, 2.992e-6
37.800, -5.846e-6, -2.854e-6, 2.992e-6
38.000, -5.845e-6, -2.853e-6, 2.992e-6
38.200, -5.845e-6, -2.853e-6, 2.993e-6
38.400, -5.845e-6, -2.852e-6, 2.993e-6
38.600, -5.846e-6, -2.852e-6, 2.994e-6
38.800, -5.845e-6, -2.851e-6, 2.994e-6
39.000, -5.845e-6, -2.850e-6, 2.995e-6
39.200, -5.845e-6, -2.850e-6, 2.995e-6
39.400, -5.846e-6, -2.850e-6, 2.996e-6
39.600, -5.845e-6, -2.849e-6, 2.996e-6
39.800, -5.844e-6, -2.849e-6, 2.996e-6
40.000, -5.845e-6, -2.848e-6, 2.996e-6
