Apr. 7, 2019   11:43:01
Square Wave Voltammetry
File: D:\process\data\swv1.bin.txt
Data Source:  Experiment
Instrument Model:  CHI900D
Header: 
Note: 

Init E (V) = 0.5
Final E (V) = -0.1
Incr E (V) = 0.004
Amplitude (V) = 0.025
Frequency (Hz) = 15
Quiet Time (sec) = 2
Sensitivity (A/V) = 1e-5

Difference:

Potential/V, Diff(i/A), For(i/A), Rev(i/A)

0.496, 1.241e-6, -4.106e-7, -1.652e-6
0.492, 1.244e-6, -3.517e-7, -1.595e-6
0.488, 1.237e-6, -3.105e-7, -1.547e-6
0.484, 1.231e-6, -2.745e-7, -1.506e-6
0.480, 1.224e-6, -2.419e-7, -1.466e-6
0.476, 1.215e-6, -2.138e-7, -1.429e-6
0.472, 1.210e-6, -1.872e-7, -1.397e-6
0.468, 1.205e-6, -1.614e-7, -1.366e-6
0.464, 1.199e-6, -1.376e-7, -1.337e-6
0.460, 1.194e-6, -1.159e-7, -1.310e-6
0.456, 1.189e-6, -9.379e-8, -1.283e-6
0.452, 1.184e-6, -7.486e-8, -1.259e-6
0.448, 1.181e-6, -5.478e-8, -1.236e-6
0.444, 1.178e-6, -3.615e-8, -1.214e-6
0.440, 1.175e-6, -1.834e-8, -1.193e-6
0.436, 1.172e-6, -1.179e-9, -1.174e-6
0.432, 1.170e-6, 1.573e-8, -1.154e-6
0.428, 1.169e-6, 3.266e-8, -1.137e-6
0.424, 1.169e-6, 4.919e-8, -1.119e-6
0.420, 1.168e-6, 6.475e-8, -1.103e-6
0.416, 1.168e-6, 8.095e-8, -1.087e-6
0.412, 1.171e-6, 9.679e-8, -1.074e-6
0.408, 1.172e-6, 1.128e-7, -1.059e-6
0.404, 1.174e-6, 1.283e-7, -1.046e-6
0.400, 1.178e-6, 1.448e-7, -1.033e-6
0.396, 1.183e-6, 1.609e-7, -1.022e-6
0.392, 1.188e-6, 1.780e-7, -1.010e-6
0.388, 1.194e-6, 1.944e-7, -9.999e-7
0.384, 1.204e-6, 2.134e-7, -9.910e-7
0.380, 1.216e-6, 2.320e-7, -9.837e-7
0.376, 1.227e-6, 2.521e-7, -9.753e-7
0.372, 1.242e-6, 2.724e-7, -9.695e-7
0.368, 1.260e-6, 2.958e-7, -9.640e-7
0.364, 1.279e-6, 3.190e-7, -9.598e-7
0.360, 1.302e-6, 3.451e-7, -9.574e-7
0.356, 1.330e-6, 3.737e-7, -9.566e-7
0.352, 1.361e-6, 4.051e-7, -9.562e-7
0.348, 1.397e-6, 4.388e-7, -9.586e-7
0.344, 1.441e-6, 4.780e-7, -9.633e-7
0.340, 1.488e-6, 5.191e-7, -9.691e-7
0.336, 1.545e-6, 5.669e-7, -9.785e-7
0.332, 1.611e-6, 6.208e-7, -9.903e-7
0.328, 1.685e-6, 6.803e-7, -1.005e-6
0.324, 1.774e-6, 7.482e-7, -1.025e-6
0.320, 1.871e-6, 8.241e-7, -1.047e-6
0.316, 1.985e-6, 9.101e-7, -1.075e-6
0.312, 2.117e-6, 1.009e-6, -1.108e-6
0.308, 2.266e-6, 1.119e-6, -1.147e-6
0.304, 2.435e-6, 1.243e-6, -1.192e-6
0.300, 2.628e-6, 1.383e-6, -1.245e-6
0.296, 2.850e-6, 1.544e-6, -1.306e-6
0.292, 3.098e-6, 1.722e-6, -1.376e-6
0.288, 3.377e-6, 1.922e-6, -1.455e-6
0.284, 3.687e-6, 2.144e-6, -1.543e-6
0.280, 4.032e-6, 2.390e-6, -1.642e-6
0.276, 4.406e-6, 2.657e-6, -1.749e-6
0.272, 4.817e-6, 2.951e-6, -1.866e-6
0.268, 5.257e-6, 3.265e-6, -1.992e-6
0.264, 5.724e-6, 3.601e-6, -2.123e-6
0.260, 6.216e-6, 3.955e-6, -2.261e-6
0.256, 6.726e-6, 4.325e-6, -2.401e-6
0.252, 7.238e-6, 4.699e-6, -2.539e-6
0.248, 7.756e-6, 5.082e-6, -2.673e-6
0.244, 8.257e-6, 5.458e-6, -2.799e-6
0.240, 8.733e-6, 5.825e-6, -2.908e-6
0.236, 9.169e-6, 6.169e-6, -2.999e-6
0.232, 9.556e-6, 6.490e-6, -3.066e-6
0.228, 9.883e-6, 6.777e-6, -3.106e-6
0.224, 1.013e-5, 7.025e-6, -3.110e-6
0.220, 1.030e-5, 7.225e-6, -3.080e-6
0.216, 1.039e-5, 7.381e-6, -3.009e-6
0.212, 1.039e-5, 7.482e-6, -2.904e-6
0.208, 1.030e-5, 7.538e-6, -2.759e-6
0.204, 1.012e-5, 7.540e-6, -2.582e-6
0.200, 9.871e-6, 7.500e-6, -2.371e-6
0.196, 9.553e-6, 7.415e-6, -2.139e-6
0.192, 9.178e-6, 7.294e-6, -1.884e-6
0.188, 8.756e-6, 7.138e-6, -1.618e-6
0.184, 8.303e-6, 6.959e-6, -1.344e-6
0.180, 7.829e-6, 6.757e-6, -1.072e-6
0.176, 7.345e-6, 6.542e-6, -8.031e-7
0.172, 6.865e-6, 6.316e-6, -5.494e-7
0.168, 6.393e-6, 6.087e-6, -3.057e-7
0.164, 5.941e-6, 5.856e-6, -8.408e-8
0.160, 5.510e-6, 5.632e-6, 1.225e-7
0.156, 5.107e-6, 5.413e-6, 3.063e-7
0.152, 4.730e-6, 5.203e-6, 4.733e-7
0.148, 4.383e-6, 5.001e-6, 6.178e-7
0.144, 4.066e-6, 4.812e-6, 7.461e-7
0.140, 3.774e-6, 4.630e-6, 8.564e-7
0.136, 3.510e-6, 4.463e-6, 9.530e-7
0.132, 3.271e-6, 4.305e-6, 1.034e-6
0.128, 3.055e-6, 4.158e-6, 1.103e-6
0.124, 2.859e-6, 4.021e-6, 1.162e-6
0.120, 2.681e-6, 3.892e-6, 1.211e-6
0.116, 2.522e-6, 3.773e-6, 1.251e-6
0.112, 2.378e-6, 3.663e-6, 1.285e-6
0.108, 2.246e-6, 3.559e-6, 1.313e-6
0.104, 2.127e-6, 3.462e-6, 1.335e-6
0.100, 2.021e-6, 3.373e-6, 1.352e-6
0.096, 1.921e-6, 3.289e-6, 1.367e-6
0.092, 1.833e-6, 3.210e-6, 1.377e-6
0.088, 1.754e-6, 3.138e-6, 1.384e-6
0.084, 1.680e-6, 3.069e-6, 1.389e-6
0.080, 1.616e-6, 3.007e-6, 1.391e-6
0.076, 1.559e-6, 2.948e-6, 1.389e-6
0.072, 1.504e-6, 2.893e-6, 1.389e-6
0.068, 1.456e-6, 2.841e-6, 1.385e-6
0.064, 1.415e-6, 2.795e-6, 1.380e-6
0.060, 1.376e-6, 2.749e-6, 1.374e-6
0.056, 1.341e-6, 2.708e-6, 1.367e-6
0.052, 1.312e-6, 2.670e-6, 1.357e-6
0.048, 1.284e-6, 2.634e-6, 1.350e-6
0.044, 1.262e-6, 2.601e-6, 1.339e-6
0.040, 1.241e-6, 2.571e-6, 1.330e-6
0.036, 1.221e-6, 2.542e-6, 1.321e-6
0.032, 1.206e-6, 2.515e-6, 1.309e-6
0.028, 1.192e-6, 2.491e-6, 1.299e-6
0.024, 1.180e-6, 2.468e-6, 1.289e-6
0.020, 1.170e-6, 2.447e-6, 1.277e-6
0.016, 1.161e-6, 2.428e-6, 1.268e-6
0.012, 1.152e-6, 2.409e-6, 1.257e-6
0.008, 1.146e-6, 2.393e-6, 1.247e-6
0.004, 1.140e-6, 2.377e-6, 1.237e-6
-0.000, 1.136e-6, 2.363e-6, 1.227e-6
-0.004, 1.132e-6, 2.350e-6, 1.218e-6
-0.008, 1.129e-6, 2.338e-6, 1.209e-6
-0.012, 1.127e-6, 2.327e-6, 1.200e-6
-0.016, 1.125e-6, 2.317e-6, 1.192e-6
-0.020, 1.124e-6, 2.307e-6, 1.183e-6
-0.024, 1.123e-6, 2.299e-6, 1.176e-6
-0.028, 1.123e-6, 2.292e-6, 1.169e-6
-0.032, 1.124e-6, 2.285e-6, 1.161e-6
-0.036, 1.124e-6, 2.279e-6, 1.155e-6
-0.040, 1.126e-6, 2.274e-6, 1.148e-6
-0.044, 1.127e-6, 2.269e-6, 1.142e-6
-0.048, 1.131e-6, 2.267e-6, 1.136e-6
-0.052, 1.131e-6, 2.262e-6, 1.131e-6
-0.056, 1.134e-6, 2.260e-6, 1.126e-6
-0.060, 1.138e-6, 2.259e-6, 1.121e-6
-0.064, 1.141e-6, 2.258e-6, 1.117e-6
-0.068, 1.145e-6, 2.257e-6, 1.112e-6
-0.072, 1.148e-6, 2.257e-6, 1.109e-6
-0.076, 1.152e-6, 2.258e-6, 1.105e-6
-0.080, 1.157e-6, 2.260e-6, 1.103e-6
-0.084, 1.162e-6, 2.262e-6, 1.100e-6
-0.088, 1.168e-6, 2.265e-6, 1.097e-6
-0.092, 1.173e-6, 2.268e-6, 1.095e-6
-0.096, 1.178e-6, 2.272e-6, 1.094e-6
-0.100, 1.184e-6, 2.277e-6, 1.092e-6
